beta_para	beta_perp	delta_para	delta_perp	delta	beta	energy
0.000182590442981	0.000182590442981	-0.0042401361287659	-0.0042189920241128	-0.0042260400589972	0.000182590442981	269.25
0.0001826055193387	0.0001826011625259	-0.0042427786352871	-0.0042213457999987	-0.0042284900784282	0.0001826026147969	269.2592923605613
0.0001826496068057	0.0001826322854088	-0.0042454072964316	-0.0042236867971065	-0.0042309269635482	0.0001826380592078	269.2685847211225
0.0001826936487403	0.0001826628393517	-0.0042480197392078	-0.0042260156714664	-0.0042333503607135	0.0001826731091479	269.2778770816838
0.0001827368144062	0.0001826934820701	-0.0042506269856237	-0.0042283403689755	-0.0042357692411916	0.0001827079261821	269.28716944224504
0.0001827811899953	0.0001827243609572	-0.0042532316203608	-0.0042306629103353	-0.0042381858136771	0.0001827433039699	269.29646180280633
0.0001828249438375	0.0001827556532585	-0.0042558348560504	-0.0042329841982335	-0.0042406010841725	0.0001827787501182	269.3057541633676
0.0001828689987534	0.0001827868577601	-0.0042584383823894	-0.004235304914171	-0.0042430160702438	0.0001828142380912	269.31504652392886
0.0001829135187314	0.000182817613177	-0.0042610427266122	-0.0042376262777454	-0.004245431760701	0.0001828495816951	269.32433888449015
0.000182957919556	0.000182848721922	-0.004263648956243	-0.0042399492598595	-0.004247849158654	0.0001828851211333	269.3336312450514
0.0001830015618784	0.0001828798987217	-0.0042662618095794	-0.0042422761290868	-0.0042502713559177	0.0001829204531073	269.34292360561267
0.0001830580348154	0.0001829185783067	-0.0042688778384545	-0.0042446049282133	-0.0042526958982937	0.0001829650638096	269.352215966174
0.0001831203832558	0.0001829611881061	-0.0042714886955604	-0.0042469308500966	-0.0042551167985846	0.000183014253156	269.3615083267352
0.0001831820592408	0.0001830038486813	-0.0042740961014923	-0.0042492544191023	-0.004257534979899	0.0001830632522012	269.3708006872965
0.0001832450682841	0.0001830466856987	-0.0042767021343749	-0.0042515772760308	-0.0042599522288122	0.0001831128132272	269.3800930478577
0.0001833074915258	0.0001830899432198	-0.0042793072475723	-0.0042538995942915	-0.0042623688120518	0.0001831624593218	269.389385408419
0.0001833705082955	0.0001831326807575	-0.0042819121095137	-0.0042562218819257	-0.0042647852911217	0.0001832119566035	269.39867776898024
0.000183432887408	0.0001831757473414	-0.0042845171422579	-0.0042585445439155	-0.0042672020766963	0.0001832614606969	269.4079701295415
0.0001834959119531	0.0001832186756943	-0.0042871227000182	-0.0042608675183002	-0.0042696192455395	0.0001833110877806	269.4172624901028
0.0001835587668444	0.000183261303919	-0.0042897285406557	-0.0042631914283008	-0.0042720371324191	0.0001833604582275	269.42655485066405
0.0001836210667832	0.0001833047701848	-0.0042923355939479	-0.0042655160312692	-0.0042744558854954	0.0001834102023843	269.43584721122534
0.00018368442262	0.0001833478171237	-0.0042949437176486	-0.0042678412410778	-0.0042768753999347	0.0001834600189558	269.44513957178657
0.0001837474967746	0.0001833912021658	-0.0042975527185199	-0.0042701672863668	-0.0042792957637512	0.0001835099670354	269.45443193234786
0.0001838112875988	0.0001834340248897	-0.0043001626415835	-0.0042724944887077	-0.004281717206333	0.0001835597791261	269.46372429290915
0.0001838745317507	0.0001834776408394	-0.0043027735298896	-0.0042748229043531	-0.0042841397795319	0.0001836099378098	269.4730166534704
0.0001839378508836	0.0001835212623521	-0.0043053860091992	-0.0042771520684154	-0.00428656338201	0.0001836601251959	269.48230901403167
0.0001840015929652	0.0001835646077412	-0.0043079999024118	-0.0042794825237998	-0.0042889883166705	0.0001837102694825	269.4916013745929
0.0001840656405518	0.0001836085580327	-0.0043106148237565	-0.0042818142733997	-0.004291414456852	0.0001837609188724	269.5008937351542
0.0001841289484713	0.0001836528217345	-0.0043132313502404	-0.0042841467364177	-0.0042938416076919	0.0001838115306468	269.5101860957155
0.0001841927618184	0.0001836964002552	-0.0043158500940281	-0.004286480362341	-0.0042962702729033	0.0001838618541096	269.5194784562767
0.0001842579270319	0.0001837401835553	-0.0043184699825719	-0.0042888156340239	-0.0042987004168732	0.0001839127647142	269.528770816838
0.0001843226841178	0.0001837843349564	-0.0043210905959106	-0.0042911522350999	-0.0043011316887035	0.0001839637846768	269.53806317739924
0.0001843866853026	0.0001838287326273	-0.0043237130748389	-0.0042934898234514	-0.0043035642405806	0.0001840147168524	269.5473555379605
0.0001844514122298	0.0001838723940633	-0.0043263373408564	-0.0042958290812078	-0.0043059985010906	0.0001840654001188	269.5566478985218
0.0001845156056139	0.0001839173732483	-0.0043289632106764	-0.004298169704881	-0.0043084342068128	0.0001841167840368	269.56594025908305
0.0001845796063584	0.0001839617604952	-0.0043315917558123	-0.0043005111287182	-0.0043108713377495	0.0001841677091163	269.57523261964434
0.0001846457891716	0.0001840055941774	-0.0043342217594881	-0.0043028544744221	-0.0043133102361108	0.0001842189925088	269.5845249802056
0.0001847111212148	0.0001840503887465	-0.0043368523551576	-0.0043051994413086	-0.0043157504125916	0.0001842706329026	269.59381734076686
0.0001847752254161	0.0001840950064158	-0.0043394855074172	-0.0043075455081113	-0.0043181921745466	0.0001843217460826	269.6031097013281
0.0001848409256415	0.0001841393848215	-0.0043421209207244	-0.0043098931765172	-0.0043206357579196	0.0001843732317615	269.6124020618894
0.0001849064428615	0.0001841839037015	-0.004344757618735	-0.004312242553574	-0.0043230809086277	0.0001844247500882	269.6216944224507
0.0001849716852518	0.0001842284019694	-0.0043473962124057	-0.0043145938417222	-0.0043255279652834	0.0001844761630636	269.6309867830119
0.0001850366096274	0.0001842741187036	-0.0043500375256747	-0.0043169463378784	-0.0043279767338105	0.0001845282823449	269.6402791435732
0.0001851037747719	0.0001843190316984	-0.0043526800759994	-0.0043192997413617	-0.0043304265195743	0.0001845806127229	269.6495715041344
0.0001851682980494	0.000184363092702	-0.0043553246095705	-0.0043216556396764	-0.0043328786296411	0.0001846314944845	269.6588638646957
0.0001852353970501	0.0001844091422076	-0.004357971352198	-0.0043240132013171	-0.0043353325849441	0.0001846845604884	269.668156225257
0.0001853007749998	0.0001844545844289	-0.0043606194819386	-0.0043263713091029	-0.0043377873667148	0.0001847366479525	269.67744858581824
0.0001853664111232	0.0001844986635751	-0.0043632705463925	-0.0043287317857053	-0.0043402447059344	0.0001847879127578	269.6867409463796
0.0001854329669162	0.0001845443493948	-0.0043659237522711	-0.0043310944655113	-0.0043427042277645	0.0001848405552353	269.6960333069408
0.0001854997966106	0.0001845900729927	-0.0043685785415151	-0.0043334581882815	-0.0043451649726927	0.0001848933141987	269.70532566750205
0.0001855663446863	0.0001846354611733	-0.0043712351224015	-0.0043358234467196	-0.0043476273386136	0.0001849457556776	269.71461802806334
0.0001856324628327	0.0001846806016635	-0.004373894194184	-0.0043381907584625	-0.004350091903703	0.0001849978887199	269.7239103886246
0.0001856995398547	0.0001847262731998	-0.0043765551969703	-0.0043405600941135	-0.0043525584617324	0.0001850506954181	269.73320274918586
0.0001857649304645	0.0001847725629492	-0.0043792191153756	-0.004342930730162	-0.0043550268585665	0.000185103352121	269.7424951097471
0.0001858331932529	0.0001848182032821	-0.0043818855387126	-0.0043453028876293	-0.004357497104657	0.0001851565332724	269.7517874703084
0.0001859009426291	0.0001848640379741	-0.0043845529912734	-0.0043476769406081	-0.0043599689574965	0.0001852096728591	269.7610798308697
0.0001859686328787	0.0001849095664825	-0.0043872223017431	-0.0043500530123799	-0.004362442775501	0.0001852625886146	269.7703721914309
0.0001860356969736	0.000184955695777	-0.0043898937865806	-0.0043524311545873	-0.0043649186985851	0.0001853156961759	269.7796645519922
0.00018610265083	0.0001850023492536	-0.0043925678421796	-0.0043548107200468	-0.0043673964274244	0.0001853691164457	269.78895691255343
0.0001861694631508	0.0001850486786318	-0.0043952447436737	-0.0043571917605597	-0.0043698760882644	0.0001854222734715	269.7982492731147
0.00018623718732	0.0001850948782887	-0.0043979244144449	-0.0043595746686514	-0.0043723579172492	0.0001854756479658	269.807541633676
0.0001863062939626	0.0001851409989011	-0.0044006052976405	-0.0043619596265087	-0.004374841516886	0.0001855294305882	269.81683399423724
0.0001863732032443	0.0001851876192719	-0.0044032884262859	-0.0043643462626757	-0.0043773269838791	0.0001855828139293	269.82612635479853
0.0001864416156127	0.0001852333947583	-0.0044059745304594	-0.0043667349990012	-0.0043798148428206	0.0001856361350431	269.83541871535976
0.0001865098490213	0.0001852801593473	-0.0044086626297236	-0.0043691259122699	-0.0043823048180878	0.0001856900559053	269.84471107592105
0.0001865782494701	0.0001853267732061	-0.0044113533494692	-0.0043715186154806	-0.0043847968601435	0.0001857439319608	269.85400343648234
0.0001866479220133	0.0001853740604332	-0.0044140455894145	-0.0043739130781209	-0.0043872905818854	0.0001857986809599	269.8632957970436
0.000186715569335	0.0001854212355302	-0.004416739991255	-0.0043763089211198	-0.0043897859444982	0.0001858526801318	269.87258815760487
0.0001867838773774	0.0001854677427113	-0.0044194377105566	-0.0043787068424936	-0.0043922837985146	0.0001859064542667	269.8818805181661
0.0001868526273526	0.0001855147288048	-0.0044221380238897	-0.0043811069642522	-0.0043947839841314	0.0001859606949874	269.8911728787274
0.0001869222202969	0.0001855616099289	-0.0044248403804953	-0.004383509145384	-0.0043972862237544	0.0001860151467182	269.9004652392887
0.0001869913797109	0.0001856091449462	-0.004427544740782	-0.0043859132350291	-0.0043997904036134	0.0001860698898678	269.9097575998499
0.0001870603869076	0.000185656568121	-0.0044302517519176	-0.0043883190117832	-0.004402296591828	0.0001861245077165	269.9190499604112
0.0001871296677366	0.0001857040796794	-0.0044329614656162	-0.0043907265807389	-0.004404804875698	0.0001861792756984	269.92834232097243
0.0001871994333246	0.0001857510781733	-0.0044356735615498	-0.0043931363208749	-0.0044073154010998	0.0001862338632238	269.9376346815337
0.0001872693091496	0.0001857986676648	-0.0044383878419528	-0.0043955482301112	-0.0044098281007251	0.0001862888814931	269.94692704209496
0.0001873390287894	0.0001858460830346	-0.0044411045457364	-0.004397962103015	-0.0044123429172555	0.0001863437316195	269.95621940265625
0.0001874089103909	0.0001858937071522	-0.0044438237272543	-0.0044003782560778	-0.0044148600798033	0.0001863987748984	269.96551176321753
0.0001874785840557	0.0001859420589337	-0.004446545487379	-0.0044027961131111	-0.0044173792378671	0.0001864542339744	269.9748041237788
0.000187548471367	0.0001859897168002	-0.0044492698899896	-0.0044052159158626	-0.0044199005739049	0.0001865093016558	269.98409648434006
0.000187618099113	0.0001860381403844	-0.0044519972036808	-0.0044076376803644	-0.0044224241881365	0.0001865647932939	269.9933888449013
0.0001876885666649	0.0001860857937385	-0.0044547274822478	-0.0044100613811839	-0.0044249500815385	0.0001866200513806	270.0026812054626
0.0001877600941637	0.0001861337096768	-0.0044574594917631	-0.0044124875408761	-0.0044274781911718	0.0001866758378391	270.01197356602387
0.0001878300889748	0.000186181892478	-0.0044601939531785	-0.0044149157740934	-0.0044300085004551	0.0001867312913103	270.0212659265851
0.0001879010056621	0.0001862298760009	-0.0044629315458724	-0.0044173464289052	-0.0044325414678943	0.0001867869192213	270.0305582871464
0.0001879720874458	0.0001862791361851	-0.0044656714449573	-0.0044197789680166	-0.0044350764603302	0.000186843453272	270.0398506477076
0.0001880429128668	0.0001863279061783	-0.0044684140982094	-0.0044222128692745	-0.0044376132789195	0.0001868995750745	270.0491430082689
0.0001881143995886	0.0001863760265499	-0.0044711593590182	-0.0044246490316596	-0.0044401524741125	0.0001869554842295	270.0584353688302
0.0001881854506536	0.0001864240534753	-0.0044739073284598	-0.0044270879834017	-0.0044426944317544	0.0001870111858681	270.06772772939144
0.0001882573321349	0.0001864729151688	-0.0044766579821758	-0.004429529301797	-0.0044452388619232	0.0001870677208241	270.0770200899527
0.0001883289995693	0.0001865219911628	-0.0044794109383022	-0.0044319724729362	-0.0044477852947249	0.0001871243272983	270.086312450514
0.0001884002628785	0.0001865710420815	-0.0044821669841185	-0.0044344175557282	-0.0044503340318583	0.0001871807823472	270.09560481107525
0.0001884725339348	0.0001866196399026	-0.0044849258172394	-0.0044368649952858	-0.0044528852692704	0.0001872372712467	270.10489717163654
0.0001885446788945	0.0001866685033061	-0.0044876868016402	-0.004439315129107	-0.0044554390199514	0.0001872938951689	270.11418953219777
0.0001886159405237	0.0001867181898838	-0.0044904509750896	-0.0044417672946927	-0.0044579951881583	0.0001873507734304	270.12348189275906
0.0001886882996692	0.0001867675002262	-0.004493218231369	-0.0044442213962246	-0.0044605536746061	0.0001874077667072	270.1327742533203
0.0001887602829647	0.0001868168537077	-0.0044959881996302	-0.0044466778742068	-0.0044631146493479	0.0001874646634601	270.1420666138816
0.0001888325667361	0.0001868663100843	-0.0044987615506245	-0.0044491366333753	-0.0044656782724583	0.0001875217289682	270.15135897444287
0.0001889063245977	0.0001869156673635	-0.0045015371784233	-0.0044515978065856	-0.0044682442638648	0.0001875792197749	270.1606513350041
0.0001889789954688	0.0001869653561662	-0.004504314961359	-0.004454061331448	-0.0044708125414183	0.0001876365692671	270.1699436955654
0.0001890512866935	0.0001870148968399	-0.0045070961161585	-0.004456527179603	-0.0044733834917882	0.0001876936934578	270.1792360561266
0.0001891238099897	0.0001870644550293	-0.0045098807315179	-0.0044589957022225	-0.0044759573786543	0.0001877509066828	270.1885284166879
0.0001891969983404	0.000187114676995	-0.0045126682472457	-0.0044614665407192	-0.004478533776228	0.0001878087841101	270.19782077724915
0.0001892695241839	0.0001871646242689	-0.0045154592755131	-0.0044639395349712	-0.0044811127818185	0.0001878662575739	270.20711313781044
0.0001893442159593	0.0001872143181662	-0.0045182530332499	-0.0044664153263384	-0.0044836945619756	0.0001879242840973	270.2164054983717
0.0001894174926904	0.0001872647091883	-0.0045210492484517	-0.0044688936661842	-0.0044862788602734	0.000187982303689	270.22569785893296
0.0001894912669798	0.0001873148253192	-0.0045238490088286	-0.0044713743996571	-0.0044888659360476	0.0001880403058727	270.23499021949425
0.0001895652152249	0.0001873650907909	-0.0045266517731569	-0.0044738578292613	-0.0044914558105598	0.0001880984656022	270.2442825800555
0.0001896388120416	0.0001874153256965	-0.0045294581788351	-0.0044763440296693	-0.0044940487460579	0.0001881564878115	270.2535749406168
0.0001897141276272	0.0001874659725044	-0.0045322672488091	-0.0044788328840774	-0.004496644338988	0.0001882153575453	270.26286730117806
0.0001897872531049	0.0001875163161347	-0.0045350796381017	-0.0044813245625371	-0.0044992429210586	0.0001882732951248	270.2721596617393
0.0001898621488053	0.0001875672234185	-0.0045378957667544	-0.0044838190650906	-0.0045018446323119	0.0001883321985474	270.2814520223006
0.0001899355717732	0.0001876177471168	-0.0045407154597634	-0.0044863164245976	-0.0045044494363196	0.0001883903553356	270.2907443828618
0.0001900101278979	0.0001876684840198	-0.0045435396436856	-0.0044888170121173	-0.0045070578893067	0.0001884490319791	270.3000367434231
0.0001900857371077	0.0001877192487948	-0.0045463669378081	-0.0044913208554455	-0.0045096695495664	0.0001885080782325	270.3093291039844
0.0001901604279941	0.0001877701042244	-0.0045491977715018	-0.0044938283873811	-0.0045122848487547	0.0001885668788143	270.31862146454563
0.0001902351219249	0.0001878220880971	-0.0045520333399464	-0.0044963390230873	-0.0045149037953737	0.0001886264327064	270.3279138251069
0.0001903106190323	0.000187872810238	-0.0045548734487774	-0.0044988535040657	-0.0045175268189696	0.0001886854131695	270.3372061856681
0.0001903861850398	0.0001879250276745	-0.0045577181483549	-0.0045013721934723	-0.0045201541784332	0.0001887454134629	270.34649854622944
0.0001904617401665	0.000187976225913	-0.0045605683428684	-0.0045038952192914	-0.0045227862604837	0.0001888047306642	270.3557909067908
0.000190537284491	0.0001880269968211	-0.0045634254505306	-0.0045064251316126	-0.0045254252379186	0.0001888637593778	270.365083267352
0.0001906128179952	0.0001880787096014	-0.0045662942558167	-0.0045089661124137	-0.004528075493548	0.0001889234123994	270.37437562791325
0.0001907011354675	0.0001881432060043	-0.0045691748699745	-0.004511517018084	-0.0045307363020475	0.0001889958491587	270.3836679884745
0.0001908102058949	0.0001882257995237	-0.0045720525741599	-0.0045140647638127	-0.0045333940339284	0.0001890872683141	270.3929603490358
0.0001909194307628	0.0001883093873345	-0.0045749217299214	-0.0045166046459799	-0.0045360436739604	0.0001891794018106	270.40225270959706
0.0001910288629489	0.0001883935675619	-0.0045777885058236	-0.0045191417032249	-0.0045386906374245	0.0001892719993576	270.4115450701583
0.0001911374276912	0.0001884777848752	-0.0045806553027496	-0.0045216772961841	-0.0045413366317059	0.0001893643324805	270.4208374307196
0.00019124782558	0.0001885619044834	-0.0045835224461065	-0.0045242120754238	-0.0045439821989847	0.0001894572115156	270.4301297912808
0.0001913578314906	0.0001886444845705	-0.0045863894208827	-0.0045267476772357	-0.0045466282584513	0.0001895489335438	270.4394221518421
0.0001914669987309	0.0001887283083841	-0.0045892578930176	-0.0045292847691545	-0.0045492758104422	0.0001896412051664	270.44871451240334
0.000191577212419	0.0001888129054928	-0.0045921281673143	-0.0045318223041606	-0.0045519242585452	0.0001897343411348	270.45800687296463
0.0001916880830086	0.0001888975677316	-0.0045949993622151	-0.0045343603443086	-0.0045545733502774	0.0001898277394906	270.4672992335259
0.0001917984825511	0.0001889821234675	-0.004597871809269	-0.0045368993857617	-0.0045572235269308	0.0001899209098287	270.47659159408715
0.0001919086873567	0.0001890669595695	-0.0046007464133364	-0.0045394395352143	-0.004559875161255	0.0001900142021652	270.48588395464844
0.0001920197496574	0.0001891515682914	-0.0046036229936669	-0.0045419811477119	-0.0045625284296969	0.0001901076287468	270.4951763152097
0.0001921310389573	0.0001892372999008	-0.0046065011280944	-0.0045445238220694	-0.0045651829240777	0.0001902018795863	270.50446867577097
0.0001922423246174	0.0001893222995954	-0.0046093809898594	-0.0045470675120671	-0.0045678386713312	0.0001902956412694	270.51376103633226
0.0001923531430556	0.0001894076423102	-0.0046122633857462	-0.004549612662014	-0.0045704962365914	0.000190389475892	270.5230533968935
0.0001924654518569	0.0001894923905795	-0.0046151480392878	-0.0045521595714773	-0.0045731557274141	0.0001904834110053	270.5323457574548
0.0001925782566378	0.0001895780284777	-0.0046180335927893	-0.0045547083037524	-0.0045758167334314	0.0001905781045311	270.541638118016
0.0001926891028701	0.0001896637570134	-0.0046209216168354	-0.0045572585209971	-0.0045784795529432	0.0001906722056323	270.5509304785773
0.0001928016662442	0.0001897503548778	-0.0046238124412235	-0.0045598097619407	-0.0045811439883683	0.0001907674586666	270.5602228391386
0.0001929139113147	0.0001898356564809	-0.0046267051709823	-0.004562362559935	-0.0045838100969508	0.0001908617414255	270.5695151996998
0.0001930265881219	0.0001899218282137	-0.0046296002222606	-0.0045649172917622	-0.004586478268595	0.0001909567481831	270.5788075602611
0.0001931390824757	0.000190007289805	-0.0046324978843672	-0.0045674739980386	-0.0045891486268148	0.0001910512206952	270.58809992082234
0.0001932529936582	0.0001900940032259	-0.0046353977046499	-0.0045700328406508	-0.0045918211286505	0.0001911470000366	270.59739228138363
0.0001933666190033	0.0001901815714936	-0.0046382991366257	-0.0045725923977823	-0.0045944946440634	0.0001912432539968	270.6066846419449
