beta_para	beta_perp	delta_para	delta_perp	delta	beta	energy
0.332900923182308	0.332900923182308	-0.15324062887989	-0.15324062887989	-0.15324062887989	0.332900923182308	10.0
0.3367530413680012	0.3367530413680012	-0.1671882148803476	-0.1671882148803476	-0.1671882148803476	0.3367530413680012	10.1
0.3406085073991989	0.3406085073991989	-0.1629873504630427	-0.1629873504630427	-0.1629873504630427	0.3406085073991989	10.2
0.3444693666958698	0.3444693666958698	-0.1295499484275667	-0.1295499484275667	-0.1295499484275667	0.3444693666958698	10.3
0.3483432999870434	0.3483432999870434	-0.1093252312991483	-0.1093252312991483	-0.1093252312991483	0.3483432999870434	10.4
0.3522228064968964	0.3522228064968964	-0.0942496388861097	-0.0942496388861097	-0.0942496388861097	0.3522228064968964	10.499999999999998
0.3561152086473961	0.3561152086473961	-0.0856865806075787	-0.0856865806075787	-0.0856865806075787	0.3561152086473961	10.599999999999998
0.3600816586321389	0.3600816586321389	-0.0784924660301954	-0.0784924660301954	-0.0784924660301954	0.3600816586321389	10.699999999999998
0.3641731141004966	0.3641731141004966	-0.0736093639375457	-0.0736093639375457	-0.0736093639375457	0.3641731141004966	10.799999999999995
0.3686242157949522	0.3686242157949522	-0.0699523565230218	-0.0699523565230218	-0.0699523565230218	0.3686242157949522	10.899999999999997
0.3732715386915911	0.3732715386915911	-0.0669643003007366	-0.0669643003007366	-0.0669643003007366	0.3732715386915911	10.999999999999996
0.3779610090631505	0.3779610090631505	-0.0649023014847644	-0.0649023014847644	-0.0649023014847644	0.3779610090631505	11.099999999999996
0.3826982719423776	0.3826982719423776	-0.0630326416662065	-0.0630326416662065	-0.0630326416662065	0.3826982719423776	11.199999999999996
0.3877681357712969	0.3877681357712969	-0.0618044614490511	-0.0618044614490511	-0.0618044614490511	0.3877681357712969	11.299999999999995
0.3930692403170858	0.3930692403170858	-0.0605550622190292	-0.0605550622190292	-0.0605550622190292	0.3930692403170858	11.399999999999997
0.3988997643988655	0.3988997643988655	-0.0592570826174445	-0.0592570826174445	-0.0592570826174445	0.3988997643988655	11.499999999999996
0.4047589765204822	0.4047589765204822	-0.0576760424862084	-0.0576760424862084	-0.0576760424862084	0.4047589765204822	11.599999999999994
0.4106511953115886	0.4106511953115886	-0.0557693305627927	-0.0557693305627927	-0.0557693305627927	0.4106511953115886	11.699999999999994
0.4165838624337621	0.4165838624337621	-0.0531830416760228	-0.0531830416760228	-0.0531830416760228	0.4165838624337621	11.799999999999994
0.4225439475521623	0.4225439475521623	-0.0501360999483213	-0.0501360999483213	-0.0501360999483213	0.4225439475521623	11.899999999999991
0.427166129619436	0.427166129619436	-0.0467676284880091	-0.0467676284880091	-0.0467676284880091	0.427166129619436	11.999999999999991
0.4312066981652011	0.4312066981652011	-0.0432593815485275	-0.0432593815485275	-0.0432593815485275	0.4312066981652011	12.099999999999993
0.4348856048242144	0.4348856048242144	-0.040146254118748	-0.040146254118748	-0.040146254118748	0.4348856048242144	12.199999999999992
0.4384552594549381	0.4384552594549381	-0.0371524857075245	-0.0371524857075245	-0.0371524857075245	0.4384552594549381	12.299999999999992
0.442037775359552	0.442037775359552	-0.0342260317788623	-0.0342260317788623	-0.0342260317788623	0.442037775359552	12.399999999999991
0.4456233671326428	0.4456233671326428	-0.0313156766050133	-0.0313156766050133	-0.0313156766050133	0.4456233671326428	12.499999999999991
0.4492298856533641	0.4492298856533641	-0.0279754086457154	-0.0279754086457154	-0.0279754086457154	0.4492298856533641	12.59999999999999
0.4528411859616273	0.4528411859616273	-0.0245369050867939	-0.0245369050867939	-0.0245369050867939	0.4528411859616273	12.69999999999999
0.4556154377724347	0.4556154377724347	-0.0209341089358365	-0.0209341089358365	-0.0209341089358365	0.4556154377724347	12.79999999999999
0.4581671830206271	0.4581671830206271	-0.0172876400705405	-0.0172876400705405	-0.0172876400705405	0.4581671830206271	12.89999999999999
0.4607198326151062	0.4607198326151062	-0.013692162849799	-0.013692162849799	-0.013692162849799	0.4607198326151062	12.99999999999999
0.4632728133090455	0.4632728133090455	-0.0101153547011076	-0.0101153547011076	-0.0101153547011076	0.4632728133090455	13.099999999999987
0.4658591991039723	0.4658591991039723	-0.0059744116623988	-0.0059744116623988	-0.0059744116623988	0.4658591991039723	13.199999999999989
0.4684642938400136	0.4684642938400136	-0.0015175178818549	-0.0015175178818549	-0.0015175178818549	0.4684642938400136	13.299999999999988
0.4700065719823308	0.4700065719823308	0.0030194442352564	0.0030194442352564	0.0030194442352564	0.4700065719823308	13.399999999999988
0.4705559286260617	0.4705559286260617	0.0076312090729909	0.0076312090729909	0.0076312090729909	0.4705559286260617	13.499999999999988
0.4709825646517198	0.4709825646517198	0.0119500853090823	0.0119500853090823	0.0119500853090823	0.4709825646517198	13.599999999999987
0.4711891262729007	0.4711891262729007	0.0157437255612216	0.0157437255612216	0.0157437255612216	0.4711891262729007	13.699999999999989
0.4713978683712144	0.4713978683712144	0.0194834692946184	0.0194834692946184	0.0194834692946184	0.4713978683712144	13.799999999999986
0.4716177255846682	0.4716177255846682	0.0229484722373524	0.0229484722373524	0.0229484722373524	0.4716177255846682	13.899999999999986
0.471837582798122	0.471837582798122	0.0264134751800865	0.0264134751800865	0.0264134751800865	0.471837582798122	13.999999999999986
0.4720742250752419	0.4720742250752419	0.0299383044281339	0.0299383044281339	0.0299383044281339	0.4720742250752419	14.099999999999984
0.4723120534489377	0.4723120534489377	0.0334673612309465	0.0334673612309465	0.0334673612309465	0.4723120534489377	14.199999999999983
0.4723767123107731	0.4723767123107731	0.0372353551289993	0.0372353551289993	0.0372353551289993	0.4723767123107731	14.299999999999985
0.472355692385724	0.472355692385724	0.0411215675300782	0.0411215675300782	0.0411215675300782	0.472355692385724	14.399999999999984
0.4719825988272147	0.4719825988272147	0.0450619430435719	0.0450619430435719	0.0450619430435719	0.4719825988272147	14.499999999999984
0.4710022502006387	0.4710022502006387	0.0490957388572253	0.0490957388572253	0.0490957388572253	0.4710022502006387	14.599999999999984
0.4699910358090803	0.4699910358090803	0.0531097632236655	0.0531097632236655	0.0531097632236655	0.4699910358090803	14.699999999999983
0.467867510701671	0.467867510701671	0.0564112832146041	0.0564112832146041	0.0564112832146041	0.467867510701671	14.799999999999985
0.4657439855942616	0.4657439855942616	0.0597128032055426	0.0597128032055426	0.0597128032055426	0.4657439855942616	14.899999999999984
0.4636681175360688	0.4636681175360688	0.0623992395299184	0.0623992395299184	0.0623992395299184	0.4636681175360688	14.999999999999982
0.4616179109659156	0.4616179109659156	0.064754476956914	0.064754476956914	0.064754476956914	0.4616179109659156	15.099999999999982
0.4595838225225387	0.4595838225225387	0.0669750475227184	0.0669750475227184	0.0669750475227184	0.4595838225225387	15.199999999999982
0.4576022037259021	0.4576022037259021	0.0687572344765594	0.0687572344765594	0.0687572344765594	0.4576022037259021	15.29999999999998
0.4556205849292655	0.4556205849292655	0.0705394214304004	0.0705394214304004	0.0705394214304004	0.4556205849292655	15.39999999999998
0.4536910749234181	0.4536910749234181	0.0719087468690494	0.0719087468690494	0.0719087468690494	0.4536910749234181	15.49999999999998
0.4517762622688191	0.4517762622688191	0.0731616241880288	0.0731616241880288	0.0731616241880288	0.4517762622688191	15.59999999999998
0.449878071003677	0.449878071003677	0.0742639910773886	0.0742639910773886	0.0742639910773886	0.449878071003677	15.69999999999998
0.4480213750954312	0.4480213750954312	0.0749906081529424	0.0749906081529424	0.0749906081529424	0.4480213750954312	15.79999999999998
0.4461646791871854	0.4461646791871854	0.0757172252284962	0.0757172252284962	0.0757172252284962	0.4461646791871854	15.89999999999998
0.4440499129038835	0.4440499129038835	0.0758361528323327	0.0758361528323327	0.0758361528323327	0.4440499129038835	15.99999999999998
0.4418449254149874	0.4418449254149874	0.0757921644445265	0.0757921644445265	0.0757921644445265	0.4418449254149874	16.09999999999998
0.4394597599364924	0.4394597599364924	0.0746268366982826	0.0746268366982826	0.0746268366982826	0.4394597599364924	16.199999999999978
0.4361017749499877	0.4361017749499877	0.0705610664602417	0.0705610664602417	0.0705610664602417	0.4361017749499877	16.299999999999976
0.4327437899634828	0.4327437899634828	0.0664952962222006	0.0664952962222006	0.0664952962222006	0.4327437899634828	16.399999999999977
0.431975459204624	0.431975459204624	0.0568302462537049	0.0568302462537049	0.0568302462537049	0.431975459204624	16.49999999999998
0.433258431615336	0.433258431615336	0.0427299245273906	0.0427299245273906	0.0427299245273906	0.433258431615336	16.599999999999977
0.4345414040260481	0.4345414040260481	0.0286296028010764	0.0286296028010764	0.0286296028010764	0.4345414040260481	16.699999999999974
0.4698656896327195	0.4698656896327195	0.034633940827454	0.034633940827454	0.034633940827454	0.4698656896327195	16.799999999999976
0.509056583197072	0.509056583197072	0.0429218816319836	0.0429218816319836	0.0429218816319836	0.509056583197072	16.899999999999977
0.5393435305065506	0.5393435305065506	0.0543677267807959	0.0543677267807959	0.0543677267807959	0.5393435305065506	16.999999999999975
0.5328731612253457	0.5328731612253457	0.0788500488380785	0.0788500488380785	0.0788500488380785	0.5328731612253457	17.099999999999973
0.5264027919441406	0.5264027919441406	0.103332370895362	0.103332370895362	0.103332370895362	0.5264027919441406	17.199999999999974
0.5201030533920026	0.5201030533920026	0.1217452909482373	0.1217452909482373	0.1217452909482373	0.5201030533920026	17.299999999999976
0.5140127080062704	0.5140127080062704	0.1327100138865642	0.1327100138865642	0.1327100138865642	0.5140127080062704	17.399999999999974
0.5079223626205381	0.5079223626205381	0.1436747368248911	0.1436747368248911	0.1436747368248911	0.5079223626205381	17.49999999999997
0.5019560892356376	0.5019560892356376	0.1525449400939675	0.1525449400939675	0.1525449400939675	0.5019560892356376	17.599999999999973
0.4960543031216861	0.4960543031216861	0.1603265024407268	0.1603265024407268	0.1603265024407268	0.4960543031216861	17.699999999999974
0.4901525170077349	0.4901525170077349	0.1681080647874858	0.1681080647874858	0.1681080647874858	0.4901525170077349	17.799999999999972
0.4840131488871534	0.4840131488871534	0.1743042842126474	0.1743042842126474	0.1743042842126474	0.4840131488871534	17.89999999999997
0.4778223335680555	0.4778223335680555	0.1801572055355648	0.1801572055355648	0.1801572055355648	0.4778223335680555	17.99999999999997
0.4716315182489576	0.4716315182489576	0.1860101268584822	0.1860101268584822	0.1860101268584822	0.4716315182489576	18.099999999999973
0.465776993068116	0.465776993068116	0.1904751161377263	0.1904751161377263	0.1904751161377263	0.465776993068116	18.19999999999997
0.4599439332152482	0.4599439332152482	0.194851514009927	0.194851514009927	0.194851514009927	0.4599439332152482	18.29999999999997
0.4541145572531089	0.4541145572531089	0.199218020097163	0.199218020097163	0.199218020097163	0.4541145572531089	18.39999999999997
0.4486163965573979	0.4486163965573979	0.202695164790716	0.202695164790716	0.202695164790716	0.4486163965573979	18.49999999999997
0.4431182358616871	0.4431182358616871	0.2061723094842688	0.2061723094842688	0.2061723094842688	0.4431182358616871	18.59999999999997
0.4376282396196857	0.4376282396196857	0.2096252475791469	0.2096252475791469	0.2096252475791469	0.4376282396196857	18.699999999999967
0.4323568693047954	0.4323568693047954	0.2124299867539479	0.2124299867539479	0.2124299867539479	0.4323568693047954	18.79999999999997
0.4270854989899051	0.4270854989899051	0.2152347259287488	0.2152347259287488	0.2152347259287488	0.4270854989899051	18.89999999999997
0.4218177799564298	0.4218177799564298	0.2180331916982013	0.2180331916982013	0.2180331916982013	0.4218177799564298	18.999999999999968
0.4168506830927856	0.4168506830927856	0.2203151470939588	0.2203151470939588	0.2203151470939588	0.4168506830927856	19.09999999999997
0.4118835862291413	0.4118835862291413	0.2225971024897164	0.2225971024897164	0.2225971024897164	0.4118835862291413	19.199999999999967
0.4069164893654969	0.4069164893654969	0.224879057885474	0.224879057885474	0.224879057885474	0.4069164893654969	19.29999999999997
0.4022044263612925	0.4022044263612925	0.2268325877986922	0.2268325877986922	0.2268325877986922	0.4022044263612925	19.399999999999967
0.3975089310518975	0.3975089310518975	0.2287647822971766	0.2287647822971766	0.2287647822971766	0.3975089310518975	19.499999999999964
0.3928134357425024	0.3928134357425024	0.2306969767956611	0.2306969767956611	0.2306969767956611	0.3928134357425024	19.59999999999997
0.3883106219449879	0.3883106219449879	0.2324688842163874	0.2324688842163874	0.2324688842163874	0.3883106219449879	19.699999999999967
0.3838512559393683	0.3838512559393683	0.234204648472521	0.234204648472521	0.234204648472521	0.3838512559393683	19.799999999999965
0.3793918899337488	0.3793918899337488	0.2359404127286546	0.2359404127286546	0.2359404127286546	0.3793918899337488	19.899999999999963
0.3749911855337724	0.3749911855337724	0.2376531256448746	0.2376531256448746	0.2376531256448746	0.3749911855337724	19.999999999999964
0.3706230506411283	0.3706230506411283	0.2393530402277367	0.2393530402277367	0.2393530402277367	0.3706230506411283	20.09999999999997
0.3662549157484844	0.3662549157484844	0.2410529548105987	0.2410529548105987	0.2410529548105987	0.3662549157484844	20.199999999999964
0.3617313192723878	0.3617313192723878	0.2426380035011021	0.2426380035011021	0.2426380035011021	0.3617313192723878	20.29999999999996
0.3569912667159811	0.3569912667159811	0.2440631192984172	0.2440631192984172	0.2440631192984172	0.3569912667159811	20.399999999999963
0.3522512141595745	0.3522512141595745	0.2454882350957322	0.2454882350957322	0.2454882350957322	0.3522512141595745	20.499999999999964
0.3475142862327972	0.3475142862327972	0.2468324151847634	0.2468324151847634	0.2468324151847634	0.3475142862327972	20.59999999999996
0.3427962381103995	0.3427962381103995	0.2476875612054306	0.2476875612054306	0.2476875612054306	0.3427962381103995	20.69999999999996
0.3380781899880015	0.3380781899880015	0.2485427072260979	0.2485427072260979	0.2485427072260979	0.3380781899880015	20.79999999999996
0.3333601418656036	0.3333601418656036	0.2493978532467652	0.2493978532467652	0.2493978532467652	0.3333601418656036	20.899999999999963
0.3288835205731872	0.3288835205731872	0.2499002445917791	0.2499002445917791	0.2499002445917791	0.3288835205731872	20.99999999999996
0.3244627961330327	0.3244627961330327	0.2503209636719863	0.2503209636719863	0.2503209636719863	0.3244627961330327	21.09999999999996
0.3200420716928781	0.3200420716928781	0.2507416827521935	0.2507416827521935	0.2507416827521935	0.3200420716928781	21.19999999999996
0.315740643958382	0.315740643958382	0.2510501283154384	0.2510501283154384	0.2510501283154384	0.315740643958382	21.29999999999996
0.3115980004171989	0.3115980004171989	0.2512091375658966	0.2512091375658966	0.2512091375658966	0.3115980004171989	21.39999999999996
0.3074553568760156	0.3074553568760156	0.2513681468163546	0.2513681468163546	0.2513681468163546	0.3074553568760156	21.49999999999996
0.3033127133348323	0.3033127133348323	0.2515271560668128	0.2515271560668128	0.2515271560668128	0.3033127133348323	21.59999999999996
0.2994278744449226	0.2994278744449226	0.251507503390964	0.251507503390964	0.251507503390964	0.2994278744449226	21.69999999999996
0.2955453768686977	0.2955453768686977	0.2514862281547351	0.2514862281547351	0.2514862281547351	0.2955453768686977	21.79999999999996
0.2916628792924728	0.2916628792924728	0.2514649529185062	0.2514649529185062	0.2514649529185062	0.2916628792924728	21.89999999999996
0.2879011512452908	0.2879011512452908	0.2513871247429747	0.2513871247429747	0.2513871247429747	0.2879011512452908	21.99999999999996
0.2842616507093942	0.2842616507093942	0.2512520608964793	0.2512520608964793	0.2512520608964793	0.2842616507093942	22.09999999999996
0.2806221501734977	0.2806221501734977	0.2511169970499838	0.2511169970499838	0.2511169970499838	0.2806221501734977	22.19999999999996
0.2769826496376011	0.2769826496376011	0.2509819332034883	0.2509819332034883	0.2509819332034883	0.2769826496376011	22.299999999999955
0.2735586551482031	0.2735586551482031	0.2508413860770045	0.2508413860770045	0.2508413860770045	0.2735586551482031	22.39999999999996
0.2701467217152618	0.2701467217152618	0.2507005320721265	0.2507005320721265	0.2507005320721265	0.2701467217152618	22.49999999999996
0.2667347882823206	0.2667347882823206	0.2505596780672484	0.2505596780672484	0.2505596780672484	0.2667347882823206	22.599999999999955
0.263326528177564	0.263326528177564	0.2504257805624213	0.2504257805624213	0.2504257805624213	0.263326528177564	22.69999999999996
0.2599254305209783	0.2599254305209783	0.2503054472066611	0.2503054472066611	0.2503054472066611	0.2599254305209783	22.799999999999955
0.2565243328643926	0.2565243328643926	0.2501851138509008	0.2501851138509008	0.2501851138509008	0.2565243328643926	22.89999999999996
0.253123235207807	0.253123235207807	0.2500647804951406	0.2500647804951406	0.2500647804951406	0.253123235207807	22.99999999999996
0.2496165023941432	0.2496165023941432	0.2497887223465589	0.2497887223465589	0.2497887223465589	0.2496165023941432	23.09999999999995
0.246058443137144	0.246058443137144	0.2494369999970074	0.2494369999970074	0.2494369999970074	0.246058443137144	23.19999999999996
0.2425003838801447	0.2425003838801447	0.2490852776474559	0.2490852776474559	0.2490852776474559	0.2425003838801447	23.299999999999955
0.2389423246231456	0.2389423246231456	0.2487335552979044	0.2487335552979044	0.2487335552979044	0.2389423246231456	23.399999999999952
0.2356189443044445	0.2356189443044445	0.2480919874478523	0.2480919874478523	0.2480919874478523	0.2356189443044445	23.49999999999995
0.2323086980762711	0.2323086980762711	0.2474341980439179	0.2474341980439179	0.2474341980439179	0.2323086980762711	23.59999999999995
0.2289984518480977	0.2289984518480977	0.2467764086399834	0.2467764086399834	0.2467764086399834	0.2289984518480977	23.69999999999996
0.2257261525258216	0.2257261525258216	0.2460922896909613	0.2460922896909613	0.2460922896909613	0.2257261525258216	23.79999999999995
0.2226501464575077	0.2226501464575077	0.2452719722309298	0.2452719722309298	0.2452719722309298	0.2226501464575077	23.89999999999995
0.2195741403891936	0.2195741403891936	0.2444516547708984	0.2444516547708984	0.2444516547708984	0.2195741403891936	23.99999999999995
0.2164981343208796	0.2164981343208796	0.2436313373108669	0.2436313373108669	0.2436313373108669	0.2164981343208796	24.09999999999995
0.2135074563915762	0.2135074563915762	0.2427869047404579	0.2427869047404579	0.2427869047404579	0.2135074563915762	24.19999999999995
0.2107023333042485	0.2107023333042485	0.2418900313744655	0.2418900313744655	0.2418900313744655	0.2107023333042485	24.299999999999947
0.2078972102169208	0.2078972102169208	0.2409931580084732	0.2409931580084732	0.2409931580084732	0.2078972102169208	24.39999999999995
0.205092087129593	0.205092087129593	0.2400962846424808	0.2400962846424808	0.2400962846424808	0.205092087129593	24.49999999999995
0.2023627603071166	0.2023627603071166	0.2391918120101288	0.2391918120101288	0.2391918120101288	0.2023627603071166	24.599999999999948
0.1997443275273045	0.1997443275273045	0.2382762212393096	0.2382762212393096	0.2382762212393096	0.1997443275273045	24.699999999999942
0.1971258947474923	0.1971258947474923	0.2373606304684904	0.2373606304684904	0.2373606304684904	0.1971258947474923	24.799999999999947
0.19450746196768	0.19450746196768	0.2364450396976711	0.2364450396976711	0.2364450396976711	0.19450746196768	24.89999999999995
