beta_para	beta_perp	delta_para	delta_perp	delta	beta	energy
0.000000710653669517	0.000000710653669517	0.000039113092906620	0.000039113092906620	0.000039113092906620	0.000000710653669517	2457.000000000000000000
0.000000710656797104	0.000000710656797104	0.000039112405677899	0.000039112405677899	0.000039112405677899	0.000000710656797104	2457.010000000000218279
0.000000710661633294	0.000000710661633294	0.000039111725280839	0.000039111725280839	0.000039111725280839	0.000000710661633294	2457.019999999999981810
0.000000710664760719	0.000000710664760719	0.000039111047656832	0.000039111047656832	0.000039111047656832	0.000000710664760719	2457.030000000000200089
0.000000710667775999	0.000000710667775999	0.000039110370194901	0.000039110370194901	0.000039110370194901	0.000000710667775999	2457.039999999999963620
0.000000710672611911	0.000000710672611911	0.000039109693609235	0.000039109693609235	0.000039109693609235	0.000000710672611911	2457.050000000000181899
0.000000710677592396	0.000000710677592396	0.000039109018700240	0.000039109018700240	0.000039109018700240	0.000000710677592396	2457.059999999999945430
0.000000710682428102	0.000000710682428102	0.000039108344956133	0.000039108344956133	0.000039108344956133	0.000000710682428102	2457.070000000000163709
0.000000710687263706	0.000000710687263706	0.000039107672849275	0.000039107672849275	0.000039107672849275	0.000000710687263706	2457.079999999999927240
0.000000710688569984	0.000000710688569984	0.000039106999789703	0.000039106999789703	0.000039106999789703	0.000000710688569984	2457.090000000000145519
0.000000710693405412	0.000000710693405412	0.000039106325766209	0.000039106325766209	0.000039106325766209	0.000000710693405412	2457.099999999999909051
0.000000710698240737	0.000000710698240737	0.000039105653651921	0.000039105653651921	0.000039105653651921	0.000000710698240737	2457.110000000000127329
0.000000710701367423	0.000000710701367423	0.000039104981519144	0.000039104981519144	0.000039104981519144	0.000000710701367423	2457.119999999999890861
0.000000710706202558	0.000000710706202558	0.000039104309985186	0.000039104309985186	0.000039104309985186	0.000000710706202558	2457.130000000000109139
0.000000710707508511	0.000000710707508511	0.000039103637678045	0.000039103637678045	0.000039103637678045	0.000000710707508511	2457.139999999999872671
0.000000710712343470	0.000000710712343470	0.000039102964189143	0.000039102964189143	0.000039102964189143	0.000000710712343470	2457.150000000000090949
0.000000710717178327	0.000000710717178327	0.000039102291953437	0.000039102291953437	0.000039102291953437	0.000000710717178327	2457.159999999999854481
0.000000710722157745	0.000000710722157745	0.000039101620331494	0.000039101620331494	0.000039101620331494	0.000000710722157745	2457.170000000000072760
0.000000710726992396	0.000000710726992396	0.000039100949600801	0.000039100949600801	0.000039100949600801	0.000000710726992396	2457.179999999999836291
0.000000710730006449	0.000000710730006449	0.000039100278350035	0.000039100278350035	0.000039100278350035	0.000000710730006449	2457.190000000000054570
0.000000710734840910	0.000000710734840910	0.000039099606955602	0.000039099606955602	0.000039099606955602	0.000000710734840910	2457.199999999999818101
0.000000710737966858	0.000000710737966858	0.000039098935504377	0.000039098935504377	0.000039098935504377	0.000000710737966858	2457.210000000000036380
0.000000710742801129	0.000000710742801129	0.000039098263657137	0.000039098263657137	0.000039098263657137	0.000000710742801129	2457.219999999999799911
0.000000710747635298	0.000000710747635298	0.000039097592992153	0.000039097592992153	0.000039097592992153	0.000000710747635298	2457.230000000000018190
0.000000710750760994	0.000000710750760994	0.000039096922278532	0.000039096922278532	0.000039096922278532	0.000000710750760994	2457.239999999999781721
0.000000710753774564	0.000000710753774564	0.000039096250141047	0.000039096250141047	0.000039096250141047	0.000000710753774564	2457.250000000000000000
0.000000710758608455	0.000000710758608455	0.000039095577747643	0.000039095577747643	0.000039095577747643	0.000000710758608455	2457.260000000000218279
0.000000710763586895	0.000000710763586895	0.000039094906134414	0.000039094906134414	0.000039094906134414	0.000000710763586895	2457.269999999999981810
0.000000710768420580	0.000000710768420580	0.000039094234882042	0.000039094234882042	0.000039094234882042	0.000000710768420580	2457.280000000000200089
0.000000710773254163	0.000000710773254163	0.000039093563912037	0.000039093563912037	0.000039093563912037	0.000000710773254163	2457.289999999999963620
0.000000710778087644	0.000000710778087644	0.000039092893987164	0.000039092893987164	0.000039092893987164	0.000000710778087644	2457.300000000000181899
0.000000710779392431	0.000000710779392431	0.000039092222579311	0.000039092222579311	0.000039092222579311	0.000000710779392431	2457.309999999999945430
0.000000710784225736	0.000000710784225736	0.000039091549722577	0.000039091549722577	0.000039091549722577	0.000000710784225736	2457.320000000000163709
0.000000710789058939	0.000000710789058939	0.000039090878291553	0.000039090878291553	0.000039090878291553	0.000000710789058939	2457.329999999999927240
0.000000710792183808	0.000000710792183808	0.000039090206254046	0.000039090206254046	0.000039090206254046	0.000000710792183808	2457.340000000000145519
0.000000710797016820	0.000000710797016820	0.000039089533134898	0.000039089533134898	0.000039089533134898	0.000000710797016820	2457.349999999999909051
0.000000710803702574	0.000000710803702574	0.000039088861547676	0.000039088861547676	0.000039088861547676	0.000000710803702574	2457.360000000000127329
0.000000710808535367	0.000000710808535367	0.000039088191865149	0.000039088191865149	0.000039088191865149	0.000000710808535367	2457.369999999999890861
0.000000710809839667	0.000000710809839667	0.000039087520174201	0.000039087520174201	0.000039087520174201	0.000000710809839667	2457.380000000000109139
0.000000710814672284	0.000000710814672284	0.000039086846862278	0.000039086846862278	0.000039086846862278	0.000000710814672284	2457.389999999999872671
0.000000710819504799	0.000000710819504799	0.000039086174542710	0.000039086174542710	0.000039086174542710	0.000000710819504799	2457.400000000000090949
0.000000710824337212	0.000000710824337212	0.000039085502819944	0.000039085502819944	0.000039085502819944	0.000000710824337212	2457.409999999999854481
0.000000710827461402	0.000000710827461402	0.000039084830326445	0.000039084830326445	0.000039084830326445	0.000000710827461402	2457.420000000000072760
0.000000710832293624	0.000000710832293624	0.000039084156659912	0.000039084156659912	0.000039084156659912	0.000000710832293624	2457.429999999999836291
0.000000710838978468	0.000000710838978468	0.000039083484456373	0.000039083484456373	0.000039083484456373	0.000000710838978468	2457.440000000000054570
0.000000710843810471	0.000000710843810471	0.000039082814096362	0.000039082814096362	0.000039082814096362	0.000000710843810471	2457.449999999999818101
0.000000710845114210	0.000000710845114210	0.000039082141666295	0.000039082141666295	0.000039082141666295	0.000000710845114210	2457.460000000000036380
0.000000710849946037	0.000000710849946037	0.000039081467541878	0.000039081467541878	0.000039081467541878	0.000000710849946037	2457.469999999999799911
0.000000710854777762	0.000000710854777762	0.000039080794293140	0.000039080794293140	0.000039080794293140	0.000000710854777762	2457.480000000000018190
0.000000710859609385	0.000000710859609385	0.000039080121170068	0.000039080121170068	0.000039080121170068	0.000000710859609385	2457.489999999999781721
0.000000710864440905	0.000000710864440905	0.000039079448048058	0.000039079448048058	0.000039079448048058	0.000000710864440905	2457.500000000000000000
0.000000710869416947	0.000000710869416947	0.000039078775014890	0.000039078775014890	0.000039078775014890	0.000000710869416947	2457.510000000000218279
0.000000710874248262	0.000000710874248262	0.000039078102112907	0.000039078102112907	0.000039078102112907	0.000000710874248262	2457.519999999999981810
0.000000710879079474	0.000000710879079474	0.000039077429636096	0.000039077429636096	0.000039077429636096	0.000000710879079474	2457.530000000000200089
0.000000710882090607	0.000000710882090607	0.000039076756351545	0.000039076756351545	0.000039076756351545	0.000000710882090607	2457.539999999999963620
0.000000710886921630	0.000000710886921630	0.000039076082618266	0.000039076082618266	0.000039076082618266	0.000000710886921630	2457.550000000000181899
0.000000710890044626	0.000000710890044626	0.000039075408494812	0.000039075408494812	0.000039075408494812	0.000000710890044626	2457.559999999999945430
0.000000710894875459	0.000000710894875459	0.000039074733532465	0.000039074733532465	0.000039074733532465	0.000000710894875459	2457.570000000000163709
0.000000710899706189	0.000000710899706189	0.000039074058503759	0.000039074058503759	0.000039074058503759	0.000000710899706189	2457.579999999999927240
0.000000710906389315	0.000000710906389315	0.000039073384361615	0.000039073384361615	0.000039073384361615	0.000000710906389315	2457.590000000000145519
0.000000710911219826	0.000000710911219826	0.000039072711093722	0.000039072711093722	0.000039072711093722	0.000000710911219826	2457.599999999999909051
0.000000710916050236	0.000000710916050236	0.000039072037716514	0.000039072037716514	0.000039072037716514	0.000000710916050236	2457.610000000000127329
0.000000710919172700	0.000000710919172700	0.000039071363394317	0.000039071363394317	0.000039071363394317	0.000000710919172700	2457.619999999999890861
0.000000710924002919	0.000000710924002919	0.000039070688177010	0.000039070688177010	0.000039070688177010	0.000000710924002919	2457.630000000000109139
0.000000710928833035	0.000000710928833035	0.000039070013302058	0.000039070013302058	0.000039070013302058	0.000000710928833035	2457.639999999999872671
0.000000710933695642	0.000000710933695642	0.000039069338445252	0.000039069338445252	0.000039069338445252	0.000000710933695642	2457.650000000000090949
0.000000710938525554	0.000000710938525554	0.000039068663604554	0.000039068663604554	0.000039068663604554	0.000000710938525554	2457.659999999999854481
0.000000710943355363	0.000000710943355363	0.000039067989100952	0.000039067989100952	0.000039067989100952	0.000000710943355363	2457.670000000000072760
0.000000710946477312	0.000000710946477312	0.000039067313698746	0.000039067313698746	0.000039067313698746	0.000000710946477312	2457.679999999999836291
0.000000710951306932	0.000000710951306932	0.000039066637372354	0.000039066637372354	0.000039066637372354	0.000000710951306932	2457.690000000000054570
0.000000710956136449	0.000000710956136449	0.000039065961285102	0.000039065961285102	0.000039065961285102	0.000000710956136449	2457.699999999999818101
0.000000710960965864	0.000000710960965864	0.000039065284666589	0.000039065284666589	0.000039065284666589	0.000000710960965864	2457.710000000000036380
0.000000710967647478	0.000000710967647478	0.000039064608794073	0.000039064608794073	0.000039064608794073	0.000000710967647478	2457.719999999999799911
0.000000710972476674	0.000000710972476674	0.000039063933659902	0.000039063933659902	0.000039063933659902	0.000000710972476674	2457.730000000000018190
0.000000710977305768	0.000000710977305768	0.000039063257969477	0.000039063257969477	0.000039063257969477	0.000000710977305768	2457.739999999999781721
0.000000710982134759	0.000000710982134759	0.000039062582466537	0.000039062582466537	0.000039062582466537	0.000000710982134759	2457.750000000000000000
0.000000710985256001	0.000000710985256001	0.000039061905927153	0.000039061905927153	0.000039061905927153	0.000000710985256001	2457.760000000000218279
0.000000710990084802	0.000000710990084802	0.000039061227975491	0.000039061227975491	0.000039061227975491	0.000000710990084802	2457.769999999999981810
0.000000710996765712	0.000000710996765712	0.000039060551184878	0.000039060551184878	0.000039060551184878	0.000000710996765712	2457.780000000000200089
0.000000711001594294	0.000000711001594294	0.000039059875239530	0.000039059875239530	0.000039059875239530	0.000000711001594294	2457.789999999999963620
0.000000711006422774	0.000000711006422774	0.000039059199146912	0.000039059199146912	0.000039059199146912	0.000000711006422774	2457.800000000000181899
0.000000711009431573	0.000000711009431573	0.000039058521967349	0.000039058521967349	0.000039058521967349	0.000000711009431573	2457.809999999999945430
0.000000711014259863	0.000000711014259863	0.000039057843697283	0.000039057843697283	0.000039057843697283	0.000000711014259863	2457.820000000000163709
0.000000711019088051	0.000000711019088051	0.000039057165268723	0.000039057165268723	0.000039057165268723	0.000000711019088051	2457.829999999999927240
0.000000711025768258	0.000000711025768258	0.000039056487665621	0.000039056487665621	0.000039056487665621	0.000000711025768258	2457.840000000000145519
0.000000711030596227	0.000000711030596227	0.000039055811192254	0.000039055811192254	0.000039055811192254	0.000000711030596227	2457.849999999999909051
0.000000711033716585	0.000000711033716585	0.000039055133257181	0.000039055133257181	0.000039055133257181	0.000000711033716585	2457.860000000000127329
0.000000711038544363	0.000000711038544363	0.000039054454191801	0.000039054454191801	0.000039054454191801	0.000000711038544363	2457.869999999999890861
0.000000711043372040	0.000000711043372040	0.000039053774865392	0.000039053774865392	0.000039053774865392	0.000000711043372040	2457.880000000000109139
0.000000711050051659	0.000000711050051659	0.000039053096246742	0.000039053096246742	0.000039053096246742	0.000000711050051659	2457.889999999999872671
0.000000711054879116	0.000000711054879116	0.000039052418283281	0.000039052418283281	0.000039052418283281	0.000000711054879116	2457.900000000000090949
0.000000711059706471	0.000000711059706471	0.000039051739620542	0.000039051739620542	0.000039051739620542	0.000000711059706471	2457.909999999999854481
0.000000711064533724	0.000000711064533724	0.000039051060627414	0.000039051060627414	0.000039051060627414	0.000000711064533724	2457.920000000000072760
0.000000711069360875	0.000000711069360875	0.000039050381295611	0.000039050381295611	0.000039050381295611	0.000000711069360875	2457.929999999999836291
0.000000711074187924	0.000000711074187924	0.000039049701237315	0.000039049701237315	0.000039049701237315	0.000000711074187924	2457.940000000000054570
0.000000711080866825	0.000000711080866825	0.000039049021778783	0.000039049021778783	0.000039049021778783	0.000000711080866825	2457.949999999999818101
0.000000711085693655	0.000000711085693655	0.000039048342911296	0.000039048342911296	0.000039048342911296	0.000000711085693655	2457.960000000000036380
0.000000711090520382	0.000000711090520382	0.000039047663286836	0.000039047663286836	0.000039047663286836	0.000000711090520382	2457.969999999999799911
0.000000711095347007	0.000000711095347007	0.000039046983246340	0.000039046983246340	0.000039046983246340	0.000000711095347007	2457.980000000000018190
0.000000711100173531	0.000000711100173531	0.000039046302441061	0.000039046302441061	0.000039046302441061	0.000000711100173531	2457.989999999999781721
0.000000711106851831	0.000000711106851831	0.000039045622210221	0.000039045622210221	0.000039045622210221	0.000000711106851831	2458.000000000000000000
0.000000711111678135	0.000000711111678135	0.000039044942551033	0.000039044942551033	0.000039044942551033	0.000000711111678135	2458.010000000000218279
0.000000711116504337	0.000000711116504337	0.000039044262118676	0.000039044262118676	0.000039044262118676	0.000000711116504337	2458.019999999999981810
0.000000711121330437	0.000000711121330437	0.000039043581255910	0.000039043581255910	0.000039043581255910	0.000000711121330437	2458.030000000000200089
0.000000711126156435	0.000000711126156435	0.000039042899615016	0.000039042899615016	0.000039042899615016	0.000000711126156435	2458.039999999999963620
0.000000711132834134	0.000000711132834134	0.000039042218535653	0.000039042218535653	0.000039042218535653	0.000000711132834134	2458.050000000000181899
0.000000711137659913	0.000000711137659913	0.000039041538015007	0.000039041538015007	0.000039041538015007	0.000000711137659913	2458.059999999999945430
0.000000711142485589	0.000000711142485589	0.000039040856707873	0.000039040856707873	0.000039040856707873	0.000000711142485589	2458.070000000000163709
0.000000711147311164	0.000000711147311164	0.000039040174955772	0.000039040174955772	0.000039040174955772	0.000000711147311164	2458.079999999999927240
0.000000711152136636	0.000000711152136636	0.000039039492408624	0.000039039492408624	0.000039039492408624	0.000000711152136636	2458.090000000000145519
0.000000711158813735	0.000000711158813735	0.000039038810401123	0.000039038810401123	0.000039038810401123	0.000000711158813735	2458.099999999999909051
0.000000711163638988	0.000000711163638988	0.000039038128918963	0.000039038128918963	0.000039038128918963	0.000000711163638988	2458.110000000000127329
0.000000711168464139	0.000000711168464139	0.000039037446580263	0.000039037446580263	0.000039037446580263	0.000000711168464139	2458.119999999999890861
0.000000711173289188	0.000000711173289188	0.000039036763381207	0.000039036763381207	0.000039036763381207	0.000000711173289188	2458.130000000000109139
0.000000711179965804	0.000000711179965804	0.000039036080695750	0.000039036080695750	0.000039036080695750	0.000000711179965804	2458.139999999999872671
0.000000711184790634	0.000000711184790634	0.000039035398529179	0.000039035398529179	0.000039035398529179	0.000000711184790634	2458.150000000000090949
0.000000711189615361	0.000000711189615361	0.000039034715535604	0.000039034715535604	0.000039034715535604	0.000000711189615361	2458.159999999999854481
0.000000711194439987	0.000000711194439987	0.000039034032049105	0.000039034032049105	0.000039034032049105	0.000000711194439987	2458.170000000000072760
0.000000711199264511	0.000000711199264511	0.000039033347700829	0.000039033347700829	0.000039033347700829	0.000000711199264511	2458.179999999999836291
0.000000711205940526	0.000000711205940526	0.000039032663772201	0.000039032663772201	0.000039032663772201	0.000000711205940526	2458.190000000000054570
0.000000711210764830	0.000000711210764830	0.000039031979862223	0.000039031979862223	0.000039031979862223	0.000000711210764830	2458.199999999999818101
0.000000711217408019	0.000000711217408019	0.000039031295918927	0.000039031295918927	0.000039031295918927	0.000000711217408019	2458.210000000000036380
0.000000711222232104	0.000000711222232104	0.000039030612264253	0.000039030612264253	0.000039030612264253	0.000000711222232104	2458.219999999999799911
0.000000711227056088	0.000000711227056088	0.000039029927193032	0.000039029927193032	0.000039029927193032	0.000000711227056088	2458.230000000000018190
0.000000711233731488	0.000000711233731488	0.000039029242063196	0.000039029242063196	0.000039029242063196	0.000000711233731488	2458.239999999999781721
0.000000711240262219	0.000000711240262219	0.000039028558137018	0.000039028558137018	0.000039028558137018	0.000000711240262219	2458.250000000000000000
0.000000711245085868	0.000000711245085868	0.000039027874051304	0.000039027874051304	0.000039027874051304	0.000000711245085868	2458.260000000000218279
0.000000711249909414	0.000000711249909414	0.000039027188586462	0.000039027188586462	0.000039027188586462	0.000000711249909414	2458.269999999999981810
0.000000711256584316	0.000000711256584316	0.000039026503484567	0.000039026503484567	0.000039026503484567	0.000000711256584316	2458.280000000000200089
0.000000711261407644	0.000000711261407644	0.000039025818792635	0.000039025818792635	0.000039025818792635	0.000000711261407644	2458.289999999999963620
0.000000711266230869	0.000000711266230869	0.000039025133145960	0.000039025133145960	0.000039025133145960	0.000000711266230869	2458.300000000000181899
0.000000711271053993	0.000000711271053993	0.000039024446537546	0.000039024446537546	0.000039024446537546	0.000000711271053993	2458.309999999999945430
