beta_para	beta_perp	delta_para	delta_perp	delta	beta	energy
0.000445191198489	0.0004451995211476	0.0010810770744594	0.0012682901066543	0.001205421257757	0.0004451957893208	269.9
0.0004419725048836	0.0004419558965081	0.0010655109549161	0.0012562670813757	0.0011922081103119	0.0004419633435972	270.2
0.0004387765806478	0.0004387352588998	0.0010483632304697	0.0012427930026172	0.0011775018391058	0.0004387507797878	270.5
0.0004356013837478	0.0004355355436453	0.0010303719588816	0.0012286236958467	0.0011620488811617	0.000435557989614	270.8
0.0004324448898833	0.0004323547039978	0.0010116926849386	0.0012139263064519	0.0011460140812084	0.0004323865194139	271.1
0.0004293108103893	0.0004291964929016	0.0009923810289826	0.0011987676806766	0.0011294612667515	0.0004292362512726	271.4
0.0004261952163245	0.000426056937696	0.0009724597118386	0.0011831822723541	0.0011124207999666	0.0004261054213504	271.7
0.0004231018035348	0.0004229397756613	0.0009519382550906	0.0011671921725381	0.0010949091566462	0.0004229939240764	272.0
0.00042002666129	0.0004198410525493	0.0009308305552068	0.0011508249947529	0.0010769487118841	0.0004199032939318	272.3
0.0004169337953201	0.0004167243722542	0.000909155442679	0.0011341145677536	0.0010585707816073	0.0004167957924414	272.6
0.000413672535096	0.0004134373816779	0.0008867923511653	0.0011169551365769	0.0010396646696081	0.000413518126023	272.9
0.0004104339911463	0.000410173325873	0.0008636448175719	0.0010992668523643	0.0010201436304499	0.0004102619864282	273.2
0.0004072161607336	0.0004069301798895	0.0008397388458344	0.0010810954219875	0.0010000463893311	0.0004070272557206	273.5
0.0004040189310867	0.0004037078298502	0.0008150523358616	0.0010624398471039	0.0009793662969351	0.000403813816687	273.8
0.0004008440587745	0.0004005080520944	0.0007895546867769	0.0010432927175939	0.0009580856861611	0.000400619934888	274.1
0.0003976876910136	0.0003973269509619	0.0007632063819132	0.0010236400785665	0.0009361842913354	0.0003974503483738	274.4
0.0003945553108274	0.0003941700708628	0.0007359636733327	0.0010034664995875	0.0009136377238929	0.0003943000882375	274.7
0.0003914412145107	0.0003910316445418	0.0007077770114421	0.0009827538731004	0.0008904152410834	0.0003911706580519	275.0
0.0003883490096929	0.0003879153200683	0.0006785891781698	0.0009614799763168	0.0008664845916058	0.0003880619441437	275.3
0.0003852767272479	0.0003848191064734	0.0006483387132201	0.0009396224578728	0.0008418081659243	0.0003849722331526	275.6
0.0003822242592068	0.0003817428947301	0.0006169558269259	0.000917155305504	0.0008163459808467	0.0003819046170258	275.9
0.0003791914982565	0.0003786865764736	0.0005843640874993	0.0008940512177908	0.0007900563947932	0.0003788573802849	276.2
0.0003761801740869	0.0003756519008577	0.0005504837741165	0.0008702856081116	0.0007628938091821	0.0003758288220217	276.5
0.0003731865039995	0.0003726350430831	0.0005152497630373	0.0008458534302867	0.0007348339693488	0.0003728220153831	276.8
0.0003701043468687	0.0003695397697301	0.0004785316154939	0.00082069705755	0.0007057960191909	0.0003697307726983	277.1
0.0003669197019228	0.0003663573863604	0.0004400972166349	0.0007946795380418	0.0006756094458836	0.0003665477642697	277.4
0.0003637606908118	0.0003631952481559	0.0003997790702293	0.0007677283696135	0.0006441697865478	0.0003633855212043	277.7
0.0003606180869579	0.0003600569200934	0.0003574495949127	0.0007398235061687	0.000611420616457	0.0003602455042301	278.0
0.0003575008696968	0.000356936771546	0.0003129274606569	0.0007109099044019	0.0005772648618184	0.0003571260222396	278.3
0.0003544016618694	0.0003538383649024	0.0002659999093019	0.0006809178888909	0.0005415855211099	0.0003540285305753	278.6
0.0003513221738306	0.000350761581578	0.000216412685757	0.0006497683226817	0.0005042454982479	0.0003509513463136	278.9
0.0003482659019988	0.0003477044825849	0.0001638752406318	0.0006173633573029	0.0004650798510423	0.0003478928006844	279.2
0.0003452309210839	0.0003446651452766	0.0001080549825723	0.0005835701219392	0.0004238892138022	0.000344855907049	279.5
0.0003422099421072	0.0003416525431331	4.858465702412576e-05	0.0005481717230464	0.000380407584171	0.0003418405472879	279.8
0.0003392154221894	0.0003386538592993	-1.4501487919491738e-05	0.0005099901338967	0.000333863359237	0.0003388435052532	280.1
0.0003334652086815	0.0003412536445803	-8.407486791838122e-05	0.0004738710617778	0.0002865101633595	0.0003386383109512	280.4
0.0003313558640673	0.0003339627728433	-0.0001608605246309	0.0004369296905233	0.0002361883888864	0.0003330875754441	280.7
0.0003311750105866	0.0003290808171477	-0.0002413122018598	0.0003932870028004	0.0001801847286087	0.000329784282096	281.0
0.0003247453813375	0.0003280132945898	-0.0003315134638987	0.0003489746638262	0.0001204627193552	0.0003269167646268	281.3
0.0003256082662339	0.0003222162521228	-0.0004349843443201	0.0003024061948587	5.478590047671061e-05	0.0003233555735732	281.6
0.0003367876464845	0.000317956214219	-0.000538550801249	0.0002489566765581	-1.5493025354449936e-05	0.0003242814836154	281.9
0.0003234124476007	0.0003228868501269	-0.0006571577670087	0.00019714492475	-8.973440212821066e-05	0.000323064245013	282.2
0.0003248404484875	0.0003165163180468	-0.0008027319316026	0.0001451465493647	-0.0001731562710482	0.0003193123399173	282.5
0.0003290106935518	0.0003105501627676	-0.0009661339434045	8.451021883952704e-05	-0.0002683016655406	0.0003167505234082	282.8
0.0003267735768948	0.0003088989582157	-0.0010933700981599	4.2524594463705774e-05	-0.000338914689614	0.0003149020670326	283.0
0.000326758136129	0.0003086494420098	-0.0011019855989128	4.030532323687574e-05	-0.0003432818312677	0.0003147311864121	283.012
0.0003267894622446	0.0003083322151911	-0.0011116246722679	3.803359175600828e-05	-0.0003480277212698	0.0003145307955904	283.025
0.0003275410566344	0.0003076110140287	-0.001121367464834	3.594031664016837e-05	-0.0003526897823963	0.000314304644929	283.038
0.0003286680810197	0.0003062630819942	-0.001129959831051	3.382358459516397e-05	-0.0003569805690746	0.0003137879257362	283.05
0.0003299257490219	0.0003043267723892	-0.001138609286039	3.074753647072761e-05	-0.0003619283390962	0.0003129231798516	283.063
0.0003307737958647	0.0003026126325461	-0.001145973523095	2.6971198953816983e-05	-0.0003669101072864	0.0003120698981243	283.075
0.0003309717471799	0.000301470961826	-0.0011527982227877	2.2296204359624503e-05	-0.0003723063047715	0.0003113790625723	283.087
0.0003299691426204	0.0003014964139995	-0.001159391757965	1.626818472505441e-05	-0.0003785238348467	0.0003110577414989	283.1
0.0003239011904385	0.0003053297863721	-0.00116929441236	1.181728215261008e-05	-0.0003848063245719	0.0003115660410098	283.113
0.0003236407958957	0.0003077584805947	-0.0011803764301605	1.0316797790871611e-05	-0.000389524566961	0.0003130924650121	283.125
0.0003195994532882	0.0003094784307166	-0.0011940616413209	1.0949325512398748e-05	-0.0003936995749753	0.0003128779038164	283.137
0.0003283081398589	0.0003048622192318	-0.0012063408815871	9.410120048005224e-06	-0.0003988455676457	0.0003127354618361	283.15
0.0003292602771574	0.0003048590144963	-0.0012113031735373	5.100828567190697e-06	-0.0004033744018732	0.0003130539186667	283.163
0.0003227701705245	0.0003048845174891	-0.0012199926289799	1.916063514182479e-06	-0.0004084072769877	0.0003108914777095	283.175
0.0003206030070389	0.0003060744171486	-0.0012357113481546	-1.7260922257805442e-07	-0.0004150726341612	0.0003109538807671	283.188
0.0003259095824521	0.0003036748549938	-0.0012475816717272	-2.8989308519299127e-06	-0.0004208698999189	0.0003111412340751	283.2
0.0003260114900722	0.0003049446812593	-0.0012561751727908	-6.677969948405143e-06	-0.0004262659345572	0.0003120196262784	283.212
0.0003238778448101	0.0003067678234725	-0.0012696315482352	-7.890826541443497e-06	-0.0004315899980332	0.0003125137859464	283.225
0.0003303039418129	0.0003042038768258	-0.0012805347196152	-9.811526116346716e-06	-0.000436527394225	0.0003129684575977	283.238
0.0003239694147719	0.0003062890147016	-0.0012931077843285	-1.066075602368858e-05	-0.0004413135564723	0.0003122268121115	283.25
0.0003325768557673	0.0003016612042803	-0.0013086233220197	-1.0623447860146124e-05	-0.0004464992285116	0.0003120428013426	283.262
0.0003409757293282	0.0002961475281409	-0.0013165632029189	-1.560320182013147e-05	-0.0004524731609697	0.0003112022104366	283.275
0.0003421882611352	0.0002953296319422	-0.0013235274410517	-2.2095801281013947e-05	-0.000459123480414	0.0003110661057829	283.288
0.0003479090739756	0.0002939762512955	-0.0013255050420299	-2.927014712295124e-05	-0.0004645525038398	0.0003120878344018	283.3
0.0003298667214553	0.0003019841536372	-0.0013371598740657	-3.230195494641878e-05	-0.0004704804913741	0.000311347413241	283.313
0.0003375603772887	0.000299302318267	-0.0013566023567276	-3.0902653718418275e-05	-0.0004760799831743	0.0003121508762585	283.325
0.0003461586060103	0.0002937916095464	-0.001363915851665	-3.6043714155039176e-05	-0.0004819495350192	0.0003113779496673	283.337
0.0003411886907438	0.0002985068755666	-0.0013743965515638	-4.044840305306259e-05	-0.0004883946700286	0.0003128391863974	283.35
0.0003517042001683	0.0002941408033181	-0.0013846320523643	-4.3259320786028085e-05	-0.0004936997801279	0.0003134705400322	283.363
0.0003517111286765	0.0002938348031253	-0.0013869043799121	-4.981340906071632e-05	-0.0004988167466527	0.0003132699086919	283.375
0.0003454438329172	0.000297507958052	-0.0013933176316517	-5.427280477030252e-05	-0.0005039317334465	0.0003136066513763	283.387
0.0003411417270221	0.0002990767557009	-0.0014034093189429	-5.667915849359608e-05	-0.0005089184812295	0.0003132025332235	283.4
0.0003302562191537	0.0003006028471245	-0.0014199842757852	-5.8699139597977046e-05	-0.0005158262067718	0.0003105617427269	283.413
0.0003317592501426	0.0003023375553421	-0.0014403590903415	-5.789857842100711e-05	-0.0005221358522038	0.0003122181585213	283.425
0.0003383957291961	0.0002957398594235	-0.001457930767603	-5.941583344986995e-05	-0.00052904470465	0.0003100636242855	283.438
0.0003477401527745	0.0002939638021586	-0.0014664205333038	-6.536657106080961e-05	-0.0005358487502809	0.0003120223806242	283.45
0.0003459949056441	0.0002952904924814	-0.0014709888232503	-7.042968039625438e-05	-0.0005407455906922	0.0003123181971646	283.462
0.0003346926568249	0.0002984062047386	-0.0014897411994064	-7.06567993568133e-05	-0.0005471931744025	0.0003105923057956	283.475
0.0003541787259911	0.0002877236359894	-0.0015015739310927	-7.714096491621333e-05	-0.0005554729849768	0.0003100404752642	283.488
0.0003419614052608	0.0002973803488495	-0.0015053087675925	-8.478418901807344e-05	-0.0005618037525205	0.0003123509344259	283.5
0.0003338909280625	0.000300467125983	-0.0015245015202494	-8.274204424785858e-05	-0.0005668930010543	0.0003116908388815	283.512
0.0003378265654586	0.0002958109268068	-0.0015482139024012	-8.256136611817852e-05	-0.0005747361792692	0.000309920243744	283.525
0.0003506746946558	0.0002921832891903	-0.0015611608554806	-8.770076556686071e-05	-0.0005824973409676	0.0003118257055743	283.538
0.0003445543667413	0.0002951425470463	-0.0015747857921662	-8.989906557262617e-05	-0.0005885329534617	0.0003117358131557	283.55
0.0003600570406778	0.0002874531659399	-0.0015879366494463	-9.33813316924478e-05	-0.000595261536945	0.0003118357301265	283.563
0.000355997114556	0.0002867226933908	-0.0015944800321578	-0.0001020208413896	-0.0006031964997058	0.0003099863121525	283.575
0.0003558063812342	0.0002914062508038	-0.0016069552122723	-0.0001072595760596	-0.0006108651799533	0.0003130329638343	283.587
0.0003544227018103	0.0002932222488626	-0.0016220932181303	-0.0001083460261405	-0.0006166705778396	0.0003137735505458	283.6
0.0003571444461128	0.0002899726811222	-0.0016379215790407	-0.0001107591197329	-0.0006235890725653	0.0003125297607687	283.613
0.0003603638780904	0.0002880051660685	-0.0016497234182452	-0.0001165677303965	-0.0006314106253998	0.0003123038505251	283.625
0.0003594678165295	0.0002908959003226	-0.0016611185380427	-0.0001212295049664	-0.0006383332173609	0.0003139243827342	283.637
0.000358455955896	0.0002907033804636	-0.0016745932008091	-0.0001247493661547	-0.0006451951373971	0.0003134559564072	283.65
0.0003517964237648	0.0002933619500548	-0.0016948044464656	-0.0001262151369339	-0.0006529564647985	0.0003129845932436	283.663
0.0003622536511967	0.0002872138785487	-0.001711676294816	-0.0001297551463581	-0.0006609734359307	0.0003124143106194	283.675
0.0003611598116484	0.0002897505840809	-0.0017233378685644	-0.0001362099587852	-0.0006691756071329	0.0003137314687713	283.688
0.0003566847175118	0.0002909289889684	-0.0017415995977777	-0.0001381598432905	-0.0006766031120858	0.0003130101912352	283.7
0.0003662178741212	0.0002864881803983	-0.0017561348882301	-0.0001433905388291	-0.000684959218027	0.0003132615848882	283.712
0.0003559870401322	0.0002929533564437	-0.0017751466540302	-0.0001470093382075	-0.0006937478550037	0.000314120778195	283.725
0.0003695774433323	0.0002869576257598	-0.0017968687612819	-0.0001492593461721	-0.0007025364746004	0.000314703502035	283.738
0.0003764076875388	0.0002853094613677	-0.0018028457830337	-0.0001583556781786	-0.0007105840675977	0.0003159028151375	283.75
0.0003618624292928	0.000294100511545	-0.0018173881395408	-0.0001627038534613	-0.0007183550792146	0.0003168558530748	283.762
0.0003678928340313	0.0002929717695065	-0.0018398146100063	-0.000163600511484	-0.0007264821304567	0.0003181310314894	283.775
0.0003643987897744	0.0002959256765334	-0.0018613650968564	-0.0001640175612767	-0.0007339957816334	0.0003189199601991	283.788
0.0003772442296575	0.0002881242192216	-0.0018767867380181	-0.000167684184383	-0.0007416100023975	0.0003180508377452	283.8
0.0003703512141463	0.0002923399278058	-0.001888698350553	-0.0001747367871205	-0.0007502952759195	0.0003185363038369	283.813
0.0003628659870035	0.000294875762681	-0.0019104540700785	-0.0001757184588385	-0.0007582531755851	0.0003177081067135	283.825
0.0003640063609126	0.0002925160413342	-0.0019361696924186	-0.0001768798118655	-0.0007676596512434	0.0003165239619349	283.837
0.0003682072523702	0.0002915377988759	-0.0019638820618137	-0.0001787494260056	-0.0007782064750339	0.0003172855302163	283.85
0.0003842046421406	0.0002839812413813	-0.0019816281485381	-0.0001848260801925	-0.0007882016519258	0.0003176366279797	283.863
0.0003788724619023	0.0002861434192013	-0.0019946278446136	-0.0001936441140447	-0.0007984247636317	0.0003172824432631	283.875
0.0003769816880684	0.0002901741648112	-0.0020152193568071	-0.0001983794030214	-0.0008084848799458	0.0003193250218156	283.887
0.0003721082523957	0.0002933725724102	-0.0020435093348203	-0.0001999796070467	-0.0008190476846345	0.0003198130811431	283.9
0.0003788511678489	0.0002931185169407	-0.0020735191847967	-0.0002008206228832	-0.0008296840619324	0.0003219086136827	283.913
0.0003790751541203	0.0002944109776093	-0.0021074199633307	-0.0001976657382209	-0.0008389723247811	0.0003228434477105	283.925
0.0004179416388464	0.0002755710856613	-0.0021257881627023	-0.000204966415336	-0.0008499892085379	0.0003233808066747	283.938
0.0004082911012377	0.0002836241358558	-0.0021302188926378	-0.0002177402363076	-0.0008599610010711	0.0003254898014023	283.95
0.0004019137360447	0.0002879258448736	-0.0021535808517678	-0.0002199297840185	-0.0008692601953402	0.0003262039886716	283.962
0.0003998382874805	0.0002881441782798	-0.002190805853638	-0.0002190494799314	-0.0008811763898333	0.00032565257113	283.975
0.0004281156244991	0.0002781232059098	-0.0022150907295117	-0.0002245433242826	-0.0008929802392685	0.0003284925370875	283.988
0.0004231760566074	0.0002800815558192	-0.0022286571649573	-0.0002344188056793	-0.0009040946880964	0.0003281347206688	284.0
0.0004228983686571	0.0002849012259153	-0.0022555794587021	-0.0002376905201722	-0.0009153084996113	0.0003312415164693	284.012
0.0004322853170634	0.0002803384526231	-0.0022831703481153	-0.0002414391734287	-0.0009270643428986	0.0003313633862114	284.025
0.0004341616824703	0.0002811098958594	-0.0023106508965724	-0.0002484411150122	-0.0009409431294097	0.0003325067793904	284.038
0.0004441058105793	0.0002818761435813	-0.002335213691028	-0.0002538206256317	-0.0009527640539794	0.0003363551145287	284.05
0.0004425166782237	0.0002844453144551	-0.0023648339581977	-0.0002570737208389	-0.0009648708163171	0.0003375279757429	284.063
0.000456969450078	0.0002797683236028	-0.0023905339289607	-0.0002625408409573	-0.0009771322312835	0.0003392738985432	284.075
0.0004517556054314	0.0002856760522405	-0.0024163185716503	-0.0002673298346879	-0.0009889718785771	0.0003414472822505	284.087
0.0004554540102744	0.0002840704670864	-0.0024597513593578	-0.0002661919673288	-0.0010028010841111	0.0003416223634416	284.1
0.0004879816794117	0.0002701104292822	-0.0024868572260224	-0.0002761996022228	-0.0010185505484105	0.0003432732042481	284.113
0.0004806379324522	0.0002788222522189	-0.0025051957627083	-0.0002878402673638	-0.0010324407473456	0.0003465930724885	284.125
0.000482718872103	0.0002783327294704	-0.0025386610225792	-0.0002939101925916	-0.0010477104841917	0.0003469673137304	284.137
0.0004898020665092	0.0002836909461557	-0.0025737825559606	-0.0003010736211202	-0.0010642623160557	0.0003529049500907	284.15
0.0004883802444794	0.0002869965207693	-0.0026156753421493	-0.0003046634218925	-0.0010807139864054	0.0003546234197483	284.163
0.0005044166407669	0.0002867595752397	-0.0026562208275615	-0.000308988315489	-0.0010972023792543	0.0003598498186089	284.175
0.0005146805894375	0.0002900590120113	-0.002693273875356	-0.0003136854241398	-0.0011127649729418	0.0003654896815122	284.188
0.0005142634152351	0.000290684831979	-0.0027400139772781	-0.0003156227683738	-0.0011297470214708	0.0003657643303099	284.2
0.0005441091784945	0.0002852789507015	-0.0027853152560433	-0.0003218863435858	-0.0011491198460185	0.0003721968283003	284.212
0.0005598324749786	0.0002871103176543	-0.0028218924902199	-0.0003342266133219	-0.0011695984649303	0.0003786932870158	284.225
0.0005677678680389	0.0002991169235758	-0.0028685399894207	-0.0003392627343175	-0.0011886075431273	0.0003893321885514	284.238
0.00058565177723	0.0002987859529856	-0.0029184678933655	-0.0003393495837525	-0.0012054317079985	0.0003951170639089	284.25
0.0006073289607723	0.0002968738817442	-0.0029671698571486	-0.0003459718659243	-0.0012261854406174	0.0004011266110311	284.262
0.0006310445683945	0.0003050908233615	-0.0030221279981471	-0.000351492534926	-0.001248307162226	0.0004145494654639	284.275
0.0006638913367567	0.0003052491123613	-0.0030755959208301	-0.0003554728239779	-0.0012689052850176	0.0004256836950676	284.288
0.0006829054970125	0.0003130391900342	-0.0031335481497582	-0.0003578927443793	-0.0012899738021686	0.0004372430679288	284.3
0.0007376498887022	0.0003117057002963	-0.0031941170155247	-0.0003597201568661	-0.001311526544381	0.0004547418259642	284.313
0.0007691167858124	0.000316829916391	-0.0032467286037876	-0.0003629342193321	-0.0013313276613931	0.0004687115985579	284.325
0.0008199839666385	0.000321205247534	-0.0033097563988804	-0.0003596338808514	-0.0013503010733219	0.0004886976800827	284.337
0.0008998440646121	0.0003094123387131	-0.0033574660596212	-0.0003635015890414	-0.0013688919229083	0.0005076830596184	284.35
0.0009510578597909	0.000315832337154	-0.0033949739599709	-0.0003746573421342	-0.0013888966330983	0.0005291453520405	284.363
0.0010022971124144	0.0003280639447114	-0.0034436751181894	-0.0003740833975949	-0.0014048699787006	0.000554475163713	284.375
0.0010725411170395	0.0003297564487447	-0.0034958360324708	-0.0003647940943832	-0.0014162161602902	0.0005791889728881	284.387
0.0011721445241883	0.000316371481649	-0.003532159922392	-0.0003618573511051	-0.0014264631681536	0.0006037455777613	284.4
0.0012590494891717	0.0003078976238156	-0.0035455130675184	-0.0003713981199774	-0.0014372839816551	0.0006273013765269	284.413
0.0013196716606505	0.0003155560283078	-0.0035684178713229	-0.0003744297172605	-0.0014469888127881	0.0006527447202162	284.425
0.001439818491034	0.000304195551835	-0.0035723754928689	-0.0003748791006118	-0.0014486160496748	0.0006855456195296	284.438
