beta_para	beta_perp	delta_para	delta_perp	delta	beta	energy
0.000194168831596900	0.000194168831596900	-0.000138830296531900	-0.000138830296531900	-0.000138830296531900	0.000194168831596900	264.800000000000011369
0.000194159856089600	0.000194159856089600	-0.000139745791157200	-0.000139745791157200	-0.000139745791157200	0.000194159856089600	264.810190349400102150
0.000194152285230400	0.000194152285230400	-0.000140655652499300	-0.000140655652499300	-0.000140655652499300	0.000194152285230400	264.820380698800192931
0.000194148979242900	0.000194148979242900	-0.000141562486409700	-0.000141562486409700	-0.000141562486409700	0.000194148979242900	264.830571048200340556
0.000194145873344600	0.000194145873344600	-0.000142465709531800	-0.000142465709531800	-0.000142465709531800	0.000194145873344600	264.840761397600431337
0.000194142429229800	0.000194142429229800	-0.000143367216490300	-0.000143367216490300	-0.000143367216490300	0.000194142429229800	264.850951747000522118
0.000194139220139000	0.000194139220139000	-0.000144267701908600	-0.000144267701908600	-0.000144267701908600	0.000194139220139000	264.861142096400612900
0.000194136009830300	0.000194136009830300	-0.000145167332841300	-0.000145167332841300	-0.000145167332841300	0.000194136009830300	264.871332445800703681
0.000194132825412900	0.000194132825412900	-0.000146066379672000	-0.000146066379672000	-0.000146066379672000	0.000194132825412900	264.881522795200851306
0.000194129643131900	0.000194129643131900	-0.000146965000959600	-0.000146965000959600	-0.000146965000959600	0.000194129643131900	264.891713144600942087
0.000194126442450800	0.000194126442450800	-0.000147863342886000	-0.000147863342886000	-0.000147863342886000	0.000194126442450800	264.901903494001032868
0.000194123222157800	0.000194123222157800	-0.000148761561803300	-0.000148761561803300	-0.000148761561803300	0.000194123222157800	264.912093843401123650
0.000194120133446300	0.000194120133446300	-0.000149659683569500	-0.000149659683569500	-0.000149659683569500	0.000194120133446300	264.922284192801214431
0.000194117038124600	0.000194117038124600	-0.000150557698643200	-0.000150557698643200	-0.000150557698643200	0.000194117038124600	264.932474542201305212
0.000194113850054000	0.000194113850054000	-0.000151455782235200	-0.000151455782235200	-0.000151455782235200	0.000194113850054000	264.942664891601452837
0.000194110802709000	0.000194110802709000	-0.000152353961824200	-0.000152353961824200	-0.000152353961824200	0.000194110802709000	264.952855241001543618
0.000194107720361100	0.000194107720361100	-0.000153252219882700	-0.000153252219882700	-0.000153252219882700	0.000194107720361100	264.963045590401634399
0.000194104655079100	0.000194104655079100	-0.000154150650682400	-0.000154150650682400	-0.000154150650682400	0.000194104655079100	264.973235939801725181
0.000194101641002800	0.000194101641002800	-0.000155049234328100	-0.000155049234328100	-0.000155049234328100	0.000194101641002800	264.983426289201815962
0.000194098514133800	0.000194098514133800	-0.000155948069981300	-0.000155948069981300	-0.000155948069981300	0.000194098514133800	264.993616638602020430
0.000194095496344000	0.000194095496344000	-0.000156847219199000	-0.000156847219199000	-0.000156847219199000	0.000194095496344000	265.003806988002054368
0.000194092525068600	0.000194092525068600	-0.000157746615448300	-0.000157746615448300	-0.000157746615448300	0.000194092525068600	265.013997337402145149
0.000194089551148600	0.000194089551148600	-0.000158646292737800	-0.000158646292737800	-0.000158646292737800	0.000194089551148600	265.024187686802235930
0.000194086570277500	0.000194086570277500	-0.000159546307471400	-0.000159546307471400	-0.000159546307471400	0.000194086570277500	265.034378036202326712
0.000194083616808600	0.000194083616808600	-0.000160446681313800	-0.000160446681313800	-0.000160446681313800	0.000194083616808600	265.044568385602474336
0.000194080665532800	0.000194080665532800	-0.000161347416415700	-0.000161347416415700	-0.000161347416415700	0.000194080665532800	265.054758735002565118
0.000194077646649100	0.000194077646649100	-0.000162248605387900	-0.000162248605387900	-0.000162248605387900	0.000194077646649100	265.064949084402655899
0.000194074721473800	0.000194074721473800	-0.000163150273873100	-0.000163150273873100	-0.000163150273873100	0.000194074721473800	265.075139433802746680
0.000194071804772300	0.000194071804772300	-0.000164052405038100	-0.000164052405038100	-0.000164052405038100	0.000194071804772300	265.085329783202837461
0.000194068943588700	0.000194068943588700	-0.000164955016028900	-0.000164955016028900	-0.000164955016028900	0.000194068943588700	265.095520132602985086
0.000194066016658100	0.000194066016658100	-0.000165858181888100	-0.000165858181888100	-0.000165858181888100	0.000194066016658100	265.105710482003075867
0.000194063153111400	0.000194063153111400	-0.000166762008400500	-0.000166762008400500	-0.000166762008400500	0.000194063153111400	265.115900831403223492
0.000194060437232700	0.000194060437232700	-0.000167666464557000	-0.000167666464557000	-0.000167666464557000	0.000194060437232700	265.126091180803257430
0.000194057829642100	0.000194057829642100	-0.000168571469225300	-0.000168571469225300	-0.000168571469225300	0.000194057829642100	265.136281530203348211
0.000194054973225800	0.000194054973225800	-0.000169477264946300	-0.000169477264946300	-0.000169477264946300	0.000194054973225800	265.146471879603495836
0.000194052145401500	0.000194052145401500	-0.000170384233823800	-0.000170384233823800	-0.000170384233823800	0.000194052145401500	265.156662229003586617
0.000194049291853400	0.000194049291853400	-0.000171293354548900	-0.000171293354548900	-0.000171293354548900	0.000194049291853400	265.166852578403677398
0.000194049852003400	0.000194049852003400	-0.000172203560115300	-0.000172203560115300	-0.000172203560115300	0.000194049852003400	265.177042927803768180
0.000194051938096800	0.000194051938096800	-0.000173112673812300	-0.000173112673812300	-0.000173112673812300	0.000194051938096800	265.187233277203858961
0.000194054050927400	0.000194054050927400	-0.000174020912183400	-0.000174020912183400	-0.000174020912183400	0.000194054050927400	265.197423626603949742
0.000194055956697500	0.000194055956697500	-0.000174929039458200	-0.000174929039458200	-0.000174929039458200	0.000194055956697500	265.207613976004097367
0.000194058054875100	0.000194058054875100	-0.000175837286184700	-0.000175837286184700	-0.000175837286184700	0.000194058054875100	265.217804325404188148
0.000194060240525200	0.000194060240525200	-0.000176745590646400	-0.000176745590646400	-0.000176745590646400	0.000194060240525200	265.227994674804278930
0.000194062497251000	0.000194062497251000	-0.000177653937969100	-0.000177653937969100	-0.000177653937969100	0.000194062497251000	265.238185024204426554
0.000194064509715700	0.000194064509715700	-0.000178562525798900	-0.000178562525798900	-0.000178562525798900	0.000194064509715700	265.248375373604460492
0.000194066640872200	0.000194066640872200	-0.000179471514080800	-0.000179471514080800	-0.000179471514080800	0.000194066640872200	265.258565723004608117
0.000194068921963800	0.000194068921963800	-0.000180380734572100	-0.000180380734572100	-0.000180380734572100	0.000194068921963800	265.268756072404698898
0.000194071099404100	0.000194071099404100	-0.000181290245345700	-0.000181290245345700	-0.000181290245345700	0.000194071099404100	265.278946421804789679
0.000194073392796600	0.000194073392796600	-0.000182200085995000	-0.000182200085995000	-0.000182200085995000	0.000194073392796600	265.289136771204880461
0.000194075591334100	0.000194075591334100	-0.000183110246594500	-0.000183110246594500	-0.000183110246594500	0.000194075591334100	265.299327120604971242
0.000194077721300500	0.000194077721300500	-0.000184020924487500	-0.000184020924487500	-0.000184020924487500	0.000194077721300500	265.309517470005118867
0.000194080130947400	0.000194080130947400	-0.000184932025378100	-0.000184932025378100	-0.000184932025378100	0.000194080130947400	265.319707819405209648
0.000194082580379000	0.000194082580379000	-0.000185843328654800	-0.000185843328654800	-0.000185843328654800	0.000194082580379000	265.329898168805300429
0.000194084687180600	0.000194084687180600	-0.000186755132967500	-0.000186755132967500	-0.000186755132967500	0.000194084687180600	265.340088518205391210
0.000194087042878900	0.000194087042878900	-0.000187667560918500	-0.000187667560918500	-0.000187667560918500	0.000194087042878900	265.350278867605481992
0.000194089559612800	0.000194089559612800	-0.000188580340224000	-0.000188580340224000	-0.000188580340224000	0.000194089559612800	265.360469217005629616
0.000194092008951300	0.000194092008951300	-0.000189493456519100	-0.000189493456519100	-0.000189493456519100	0.000194092008951300	265.370659566405720398
0.000194094241608100	0.000194094241608100	-0.000190407169074100	-0.000190407169074100	-0.000190407169074100	0.000194094241608100	265.380849915805811179
0.000194096672564500	0.000194096672564500	-0.000191321543767800	-0.000191321543767800	-0.000191321543767800	0.000194096672564500	265.391040265205901960
0.000194099274837600	0.000194099274837600	-0.000192236364115500	-0.000192236364115500	-0.000192236364115500	0.000194099274837600	265.401230614605992741
0.000194101810237400	0.000194101810237400	-0.000193151646685000	-0.000193151646685000	-0.000193151646685000	0.000194101810237400	265.411420964006083523
0.000194104302226800	0.000194104302226800	-0.000194067556808400	-0.000194067556808400	-0.000194067556808400	0.000194104302226800	265.421611313406231147
0.000194106934895400	0.000194106934895400	-0.000194984053004300	-0.000194984053004300	-0.000194984053004300	0.000194106934895400	265.431801662806321929
0.000194109443408400	0.000194109443408400	-0.000195901205025400	-0.000195901205025400	-0.000195901205025400	0.000194109443408400	265.441992012206412710
0.000194112148184000	0.000194112148184000	-0.000196819024488700	-0.000196819024488700	-0.000196819024488700	0.000194112148184000	265.452182361606503491
0.000194114659923600	0.000194114659923600	-0.000197737566948100	-0.000197737566948100	-0.000197737566948100	0.000194114659923600	265.462372711006594272
0.000194117154086300	0.000194117154086300	-0.000198657142717400	-0.000198657142717400	-0.000198657142717400	0.000194117154086300	265.472563060406741897
0.000194119793344600	0.000194119793344600	-0.000199577913712100	-0.000199577913712100	-0.000199577913712100	0.000194119793344600	265.482753409806832678
0.000194122525710800	0.000194122525710800	-0.000200500706930000	-0.000200500706930000	-0.000200500706930000	0.000194122525710800	265.492943759206923460
0.000194128260640900	0.000194128260640900	-0.000201424720975700	-0.000201424720975700	-0.000201424720975700	0.000194128260640900	265.503134108607014241
0.000194135884109500	0.000194135884109500	-0.000202347847890700	-0.000202347847890700	-0.000202347847890700	0.000194135884109500	265.513324458007105022
0.000194143545364100	0.000194143545364100	-0.000203270073051900	-0.000203270073051900	-0.000203270073051900	0.000194143545364100	265.523514807407252647
0.000194151155967800	0.000194151155967800	-0.000204192162005500	-0.000204192162005500	-0.000204192162005500	0.000194151155967800	265.533705156807343428
0.000194159000560300	0.000194159000560300	-0.000205114195448200	-0.000205114195448200	-0.000205114195448200	0.000194159000560300	265.543895506207434210
0.000194166638648000	0.000194166638648000	-0.000206036272250600	-0.000206036272250600	-0.000206036272250600	0.000194166638648000	265.554085855607524991
0.000194174281503200	0.000194174281503200	-0.000206958676731200	-0.000206958676731200	-0.000206958676731200	0.000194174281503200	265.564276205007615772
0.000194182169342900	0.000194182169342900	-0.000207881270662500	-0.000207881270662500	-0.000207881270662500	0.000194182169342900	265.574466554407763397
0.000194189888694400	0.000194189888694400	-0.000208804120783600	-0.000208804120783600	-0.000208804120783600	0.000194189888694400	265.584656903807854178
0.000194197885097600	0.000194197885097600	-0.000209727225651300	-0.000209727225651300	-0.000209727225651300	0.000194197885097600	265.594847253207944959
0.000194205684040900	0.000194205684040900	-0.000210650557884100	-0.000210650557884100	-0.000210650557884100	0.000194205684040900	265.605037602608035741
0.000194213515894500	0.000194213515894500	-0.000211574310194500	-0.000211574310194500	-0.000211574310194500	0.000194213515894500	265.615227952008126522
0.000194221428148200	0.000194221428148200	-0.000212498432604700	-0.000212498432604700	-0.000212498432604700	0.000194221428148200	265.625418301408217303
0.000194229422301100	0.000194229422301100	-0.000213422850849300	-0.000213422850849300	-0.000213422850849300	0.000194229422301100	265.635608650808421771
0.000194237278832000	0.000194237278832000	-0.000214347696857900	-0.000214347696857900	-0.000214347696857900	0.000194237278832000	265.645799000208455709
0.000194245394256100	0.000194245394256100	-0.000215272959958500	-0.000215272959958500	-0.000215272959958500	0.000194245394256100	265.655989349608546490
0.000194253544406400	0.000194253544406400	-0.000216198443971700	-0.000216198443971700	-0.000216198443971700	0.000194253544406400	265.666179699008637272
0.000194261484815700	0.000194261484815700	-0.000217124334903200	-0.000217124334903200	-0.000217124334903200	0.000194261484815700	265.676370048408728053
0.000194269488637000	0.000194269488637000	-0.000218050806220800	-0.000218050806220800	-0.000218050806220800	0.000194269488637000	265.686560397808875678
0.000194277808547900	0.000194277808547900	-0.000218977586210500	-0.000218977586210500	-0.000218977586210500	0.000194277808547900	265.696750747208966459
0.000194285857210100	0.000194285857210100	-0.000219904727315900	-0.000219904727315900	-0.000219904727315900	0.000194285857210100	265.706941096609057240
0.000194294132902300	0.000194294132902300	-0.000220832284639000	-0.000220832284639000	-0.000220832284639000	0.000194294132902300	265.717131446009148021
0.000194302147460800	0.000194302147460800	-0.000221760253502600	-0.000221760253502600	-0.000221760253502600	0.000194302147460800	265.727321795409238803
0.000194310188326800	0.000194310188326800	-0.000222688902223000	-0.000222688902223000	-0.000222688902223000	0.000194310188326800	265.737512144809386427
0.000194318614412400	0.000194318614412400	-0.000223617971561400	-0.000223617971561400	-0.000223617971561400	0.000194318614412400	265.747702494209477209
0.000194326946390100	0.000194326946390100	-0.000224547334140200	-0.000224547334140200	-0.000224547334140200	0.000194326946390100	265.757892843609624833
0.000194335234884500	0.000194335234884500	-0.000225477202170200	-0.000225477202170200	-0.000225477202170200	0.000194335234884500	265.768083193009658771
0.000194343681117000	0.000194343681117000	-0.000226407508218500	-0.000226407508218500	-0.000226407508218500	0.000194343681117000	265.778273542409692709
0.000194352026653200	0.000194352026653200	-0.000227338280570200	-0.000227338280570200	-0.000227338280570200	0.000194352026653200	265.788463891809897177
0.000194360625215500	0.000194360625215500	-0.000228269412036700	-0.000228269412036700	-0.000228269412036700	0.000194360625215500	265.798654241209987958
0.000194368848021500	0.000194368848021500	-0.000229200988258800	-0.000229200988258800	-0.000229200988258800	0.000194368848021500	265.808844590610078740
0.000194377173263700	0.000194377173263700	-0.000230133268674900	-0.000230133268674900	-0.000230133268674900	0.000194377173263700	265.819034940010169521
0.000194385714830300	0.000194385714830300	-0.000231066054744800	-0.000231066054744800	-0.000231066054744800	0.000194385714830300	265.829225289410260302
0.000194394353522800	0.000194394353522800	-0.000231999216101900	-0.000231999216101900	-0.000231999216101900	0.000194394353522800	265.839415638810407927
0.000194402949666500	0.000194402949666500	-0.000232932805608800	-0.000232932805608800	-0.000232932805608800	0.000194402949666500	265.849605988210498708
0.000194411648885800	0.000194411648885800	-0.000233866718427100	-0.000233866718427100	-0.000233866718427100	0.000194411648885800	265.859796337610589489
0.000194419774608700	0.000194419774608700	-0.000234801321355900	-0.000234801321355900	-0.000234801321355900	0.000194419774608700	265.869986687010680271
0.000194428431471700	0.000194428431471700	-0.000235736709617100	-0.000235736709617100	-0.000235736709617100	0.000194428431471700	265.880177036410827895
0.000194437237841200	0.000194437237841200	-0.000236672429900700	-0.000236672429900700	-0.000236672429900700	0.000194437237841200	265.890367385810861833
0.000194446012506000	0.000194446012506000	-0.000237608544161900	-0.000237608544161900	-0.000237608544161900	0.000194446012506000	265.900557735211009458
0.000194454746400700	0.000194454746400700	-0.000238545156945200	-0.000238545156945200	-0.000238545156945200	0.000194454746400700	265.910748084611100239
0.000194463508503700	0.000194463508503700	-0.000239482268986500	-0.000239482268986500	-0.000239482268986500	0.000194463508503700	265.920938434011191021
0.000194472155035700	0.000194472155035700	-0.000240419976577200	-0.000240419976577200	-0.000240419976577200	0.000194472155035700	265.931128783411281802
0.000194480977497400	0.000194480977497400	-0.000241358322750100	-0.000241358322750100	-0.000241358322750100	0.000194480977497400	265.941319132811372583
0.000194490045331700	0.000194490045331700	-0.000242297029983300	-0.000242297029983300	-0.000242297029983300	0.000194490045331700	265.951509482211520208
0.000194498841760300	0.000194498841760300	-0.000243236177918600	-0.000243236177918600	-0.000243236177918600	0.000194498841760300	265.961699831611610989
0.000194507682540600	0.000194507682540600	-0.000244175979813600	-0.000244175979813600	-0.000244175979813600	0.000194507682540600	265.971890181011701770
0.000194516645549200	0.000194516645549200	-0.000245116290659600	-0.000245116290659600	-0.000245116290659600	0.000194516645549200	265.982080530411792552
0.000194525505653300	0.000194525505653300	-0.000246057134239400	-0.000246057134239400	-0.000246057134239400	0.000194525505653300	265.992270879811883333
0.000194534403446500	0.000194534403446500	-0.000246998628812600	-0.000246998628812600	-0.000246998628812600	0.000194534403446500	266.002461229212030958
0.000194543482889900	0.000194543482889900	-0.000247940652908700	-0.000247940652908700	-0.000247940652908700	0.000194543482889900	266.012651578612121739
0.000194552506135800	0.000194552506135800	-0.000248883181653400	-0.000248883181653400	-0.000248883181653400	0.000194552506135800	266.022841928012212520
0.000194561558863500	0.000194561558863500	-0.000249826322198900	-0.000249826322198900	-0.000249826322198900	0.000194561558863500	266.033032277412303301
0.000194570743385000	0.000194570743385000	-0.000250770010944600	-0.000250770010944600	-0.000250770010944600	0.000194570743385000	266.043222626812394083
0.000194579935914400	0.000194579935914400	-0.000251714222862900	-0.000251714222862900	-0.000251714222862900	0.000194579935914400	266.053412976212541707
0.000194589212049900	0.000194589212049900	-0.000252658956180600	-0.000252658956180600	-0.000252658956180600	0.000194589212049900	266.063603325612632489
0.000194598486652900	0.000194598486652900	-0.000253604148469200	-0.000253604148469200	-0.000253604148469200	0.000194598486652900	266.073793675012723270
0.000194607567953800	0.000194607567953800	-0.000254549947583900	-0.000254549947583900	-0.000254549947583900	0.000194607567953800	266.083984024412814051
0.000194616703189500	0.000194616703189500	-0.000255496492468000	-0.000255496492468000	-0.000255496492468000	0.000194616703189500	266.094174373812904832
0.000194626090240600	0.000194626090240600	-0.000256443567147300	-0.000256443567147300	-0.000256443567147300	0.000194626090240600	266.104364723212995614
0.000194635307669900	0.000194635307669900	-0.000257391171264900	-0.000257391171264900	-0.000257391171264900	0.000194635307669900	266.114555072613143238
0.000194644566216800	0.000194644566216800	-0.000258339488863800	-0.000258339488863800	-0.000258339488863800	0.000194644566216800	266.124745422013234020
