beta_para	beta_perp	delta_para	delta_perp	delta	beta	energy
0.000094709667872935	0.000094709667872935	0.000370621264042900	0.000370621264042900	0.000370621264042900	0.000094709667872935	671.500000000000000000
0.000094707027514512	0.000094707027514512	0.000370587045321200	0.000370587045321200	0.000370587045321200	0.000094707027514512	671.510015165772756518
0.000094704399310911	0.000094704399310911	0.000370553824034000	0.000370553824034000	0.000370553824034000	0.000094704399310911	671.520030331545513036
0.000094701746710481	0.000094701746710481	0.000370520957725500	0.000370520957725500	0.000370520957725500	0.000094701746710481	671.530045497318269554
0.000094699118812431	0.000094699118812431	0.000370488308617100	0.000370488308617100	0.000370488308617100	0.000094699118812431	671.540060663091026072
0.000094696491050540	0.000094696491050540	0.000370455831652200	0.000370455831652200	0.000370455831652200	0.000094696491050540	671.550075828863782590
0.000094693850819875	0.000094693850819875	0.000370423475539400	0.000370423475539400	0.000370423475539400	0.000094693850819875	671.560090994636539108
0.000094691211263156	0.000094691211263156	0.000370391203996000	0.000370391203996000	0.000370391203996000	0.000094691211263156	671.570106160409295626
0.000094688583524473	0.000094688583524473	0.000370359009129500	0.000370359009129500	0.000370359009129500	0.000094688583524473	671.580121326182052144
0.000094685931842045	0.000094685931842045	0.000370326859966800	0.000370326859966800	0.000370326859966800	0.000094685931842045	671.590136491954808662
0.000094683304448794	0.000094683304448794	0.000370294733726200	0.000370294733726200	0.000370294733726200	0.000094683304448794	671.600151657727565180
0.000094680665217236	0.000094680665217236	0.000370262583885200	0.000370262583885200	0.000370262583885200	0.000094680665217236	671.610166823500321698
0.000094678184095575	0.000094678184095575	0.000370230444136000	0.000370230444136000	0.000370230444136000	0.000094678184095575	671.620181989273078216
0.000094675742555503	0.000094675742555503	0.000370198370764200	0.000370198370764200	0.000370198370764200	0.000094675742555503	671.630197155045834734
0.000094673376271036	0.000094673376271036	0.000370166333503800	0.000370166333503800	0.000370166333503800	0.000094673376271036	671.640212320818591252
0.000094671130269620	0.000094671130269620	0.000370134393904400	0.000370134393904400	0.000370134393904400	0.000094671130269620	671.650227486591347770
0.000094668888482101	0.000094668888482101	0.000370102578157900	0.000370102578157900	0.000370102578157900	0.000094668888482101	671.660242652364104288
0.000094666640269894	0.000094666640269894	0.000370070843887300	0.000370070843887300	0.000370070843887300	0.000094666640269894	671.670257818136860806
0.000094664378439001	0.000094664378439001	0.000370039162394400	0.000370039162394400	0.000370039162394400	0.000094664378439001	671.680272983909617324
0.000094662133306395	0.000094662133306395	0.000370007529001000	0.000370007529001000	0.000370007529001000	0.000094662133306395	671.690288149682373842
0.000094659881522342	0.000094659881522342	0.000369975941490200	0.000369975941490200	0.000369975941490200	0.000094659881522342	671.700303315455130360
0.000094657648708263	0.000094657648708263	0.000369944399662600	0.000369944399662600	0.000369944399662600	0.000094657648708263	671.710318481227886878
0.000094655408391354	0.000094655408391354	0.000369912911151000	0.000369912911151000	0.000369912911151000	0.000094655408391354	671.720333647000643396
0.000094653144849117	0.000094653144849117	0.000369881448976700	0.000369881448976700	0.000369881448976700	0.000094653144849117	671.730348812773399914
0.000094650898062301	0.000094650898062301	0.000369850005871100	0.000369850005871100	0.000369850005871100	0.000094650898062301	671.740363978546156432
0.000094648660921546	0.000094648660921546	0.000369818596359800	0.000369818596359800	0.000369818596359800	0.000094648660921546	671.750379144318912950
0.000094646431143728	0.000094646431143728	0.000369787228085300	0.000369787228085300	0.000369787228085300	0.000094646431143728	671.760394310091669468
0.000094644179047847	0.000094644179047847	0.000369755889039700	0.000369755889039700	0.000369755889039700	0.000094644179047847	671.770409475864425985
0.000094641921309826	0.000094641921309826	0.000369724551019500	0.000369724551019500	0.000369724551019500	0.000094641921309826	671.780424641637296190
0.000094639711152288	0.000094639711152288	0.000369693243982200	0.000369693243982200	0.000369693243982200	0.000094639711152288	671.790439807410052708
0.000094637474114300	0.000094637474114300	0.000369661980491800	0.000369661980491800	0.000369661980491800	0.000094637474114300	671.800454973182809226
0.000094635224352526	0.000094635224352526	0.000369630723122000	0.000369630723122000	0.000369630723122000	0.000094635224352526	671.810470138955565744
0.000094633001498413	0.000094633001498413	0.000369599488469000	0.000369599488469000	0.000369599488469000	0.000094633001498413	671.820485304728322262
0.000094630750670070	0.000094630750670070	0.000369568273481800	0.000369568273481800	0.000369568273481800	0.000094630750670070	671.830500470501078780
0.000094628520277286	0.000094628520277286	0.000369537067760800	0.000369537067760800	0.000369537067760800	0.000094628520277286	671.840515636273835298
0.000094626290253045	0.000094626290253045	0.000369505890633100	0.000369505890633100	0.000369505890633100	0.000094626290253045	671.850530802046591816
0.000094624037844578	0.000094624037844578	0.000369474719151400	0.000369474719151400	0.000369474719151400	0.000094624037844578	671.860545967819348334
0.000094621815852819	0.000094621815852819	0.000369443557870600	0.000369443557870600	0.000369443557870600	0.000094621815852819	671.870561133592104852
0.000094619583834468	0.000094619583834468	0.000369412420277100	0.000369412420277100	0.000369412420277100	0.000094619583834468	671.880576299364861370
0.000094617355001145	0.000094617355001145	0.000369381297532800	0.000369381297532800	0.000369381297532800	0.000094617355001145	671.890591465137617888
0.000094615118016730	0.000094615118016730	0.000369350190456800	0.000369350190456800	0.000369350190456800	0.000094615118016730	671.900606630910374406
0.000094612864331725	0.000094612864331725	0.000369319073957700	0.000369319073957700	0.000369319073957700	0.000094612864331725	671.910621796683130924
0.000094610661042515	0.000094610661042515	0.000369287969923500	0.000369287969923500	0.000369287969923500	0.000094610661042515	671.920636962455887442
0.000094608437813389	0.000094608437813389	0.000369256896559100	0.000369256896559100	0.000369256896559100	0.000094608437813389	671.930652128228643960
0.000094606214423750	0.000094606214423750	0.000369225833825000	0.000369225833825000	0.000369225833825000	0.000094606214423750	671.940667294001400478
0.000094603983348555	0.000094603983348555	0.000369194782343500	0.000369194782343500	0.000369194782343500	0.000094603983348555	671.950682459774156996
0.000094601742340208	0.000094601742340208	0.000369163728305900	0.000369163728305900	0.000369163728305900	0.000094601742340208	671.960697625546913514
0.000094599522850567	0.000094599522850567	0.000369132680552000	0.000369132680552000	0.000369132680552000	0.000094599522850567	671.970712791319670032
0.000094597292977818	0.000094597292977818	0.000369101643800100	0.000369101643800100	0.000369101643800100	0.000094597292977818	671.980727957092426550
0.000094595071569510	0.000094595071569510	0.000369070607836800	0.000369070607836800	0.000369070607836800	0.000094595071569510	671.990743122865183068
0.000094592868041940	0.000094592868041940	0.000369039591387800	0.000369039591387800	0.000369039591387800	0.000094592868041940	672.000758288637939586
0.000094590644751003	0.000094590644751003	0.000369008592755600	0.000369008592755600	0.000369008592755600	0.000094590644751003	672.010773454410696104
0.000094588413025084	0.000094588413025084	0.000368977590803200	0.000368977590803200	0.000368977590803200	0.000094588413025084	672.020788620183452622
0.000094586192403634	0.000094586192403634	0.000368946591842500	0.000368946591842500	0.000368946591842500	0.000094586192403634	672.030803785956209140
0.000094583964786063	0.000094583964786063	0.000368915598266800	0.000368915598266800	0.000368915598266800	0.000094583964786063	672.040818951728965658
0.000094581741482304	0.000094581741482304	0.000368884602564300	0.000368884602564300	0.000368884602564300	0.000094581741482304	672.050834117501722176
0.000094579531528598	0.000094579531528598	0.000368853613009400	0.000368853613009400	0.000368853613009400	0.000094579531528598	672.060849283274478694
0.000094577328643636	0.000094577328643636	0.000368822644172800	0.000368822644172800	0.000368822644172800	0.000094577328643636	672.070864449047235212
0.000094575097949929	0.000094575097949929	0.000368791679369700	0.000368791679369700	0.000368791679369700	0.000094575097949929	672.080879614819991730
0.000094572879048604	0.000094572879048604	0.000368760708917700	0.000368760708917700	0.000368760708917700	0.000094572879048604	672.090894780592748248
0.000094570654842212	0.000094570654842212	0.000368729737754300	0.000368729737754300	0.000368729737754300	0.000094570654842212	672.100909946365504766
0.000094568446424617	0.000094568446424617	0.000368698767983400	0.000368698767983400	0.000368698767983400	0.000094568446424617	672.110925112138261284
0.000094566237126218	0.000094566237126218	0.000368667804092000	0.000368667804092000	0.000368667804092000	0.000094566237126218	672.120940277911017802
0.000094564042469261	0.000094564042469261	0.000368636852187600	0.000368636852187600	0.000368636852187600	0.000094564042469261	672.130955443683774320
0.000094561832900412	0.000094561832900412	0.000368605914337600	0.000368605914337600	0.000368605914337600	0.000094561832900412	672.140970609456530838
0.000094559607290898	0.000094559607290898	0.000368574964850800	0.000368574964850800	0.000368574964850800	0.000094559607290898	672.150985775229287356
0.000094557411825592	0.000094557411825592	0.000368544017154000	0.000368544017154000	0.000368544017154000	0.000094557411825592	672.161000941002043874
0.000094555199754525	0.000094555199754525	0.000368513081951100	0.000368513081951100	0.000368513081951100	0.000094555199754525	672.171016106774800392
0.000094552983890435	0.000094552983890435	0.000368482138726800	0.000368482138726800	0.000368482138726800	0.000094552983890435	672.181031272547556910
0.000094550783113755	0.000094550783113755	0.000368451195439200	0.000368451195439200	0.000368451195439200	0.000094550783113755	672.191046438320313428
0.000094548585313981	0.000094548585313981	0.000368420265893600	0.000368420265893600	0.000368420265893600	0.000094548585313981	672.201061604093069946
0.000094546367960767	0.000094546367960767	0.000368389335671700	0.000368389335671700	0.000368389335671700	0.000094546367960767	672.211076769865826464
0.000094544160913929	0.000094544160913929	0.000368358397942700	0.000368358397942700	0.000368358397942700	0.000094544160913929	672.221091935638582981
0.000094541957287641	0.000094541957287641	0.000368327463770700	0.000368327463770700	0.000368327463770700	0.000094541957287641	672.231107101411339499
0.000094539750446370	0.000094539750446370	0.000368296527913900	0.000368296527913900	0.000368296527913900	0.000094539750446370	672.241122267184096017
0.000094537557910209	0.000094537557910209	0.000368265598768700	0.000368265598768700	0.000368265598768700	0.000094537557910209	672.251137432956852535
0.000094535344056688	0.000094535344056688	0.000368234669114900	0.000368234669114900	0.000368234669114900	0.000094535344056688	672.261152598729609053
0.000094533146824750	0.000094533146824750	0.000368203733541700	0.000368203733541700	0.000368203733541700	0.000094533146824750	672.271167764502365571
0.000094530945367266	0.000094530945367266	0.000368172800243500	0.000368172800243500	0.000368172800243500	0.000094530945367266	672.281182930275122089
0.000094528752314538	0.000094528752314538	0.000368141868747400	0.000368141868747400	0.000368141868747400	0.000094528752314538	672.291198096047878607
0.000094526551164632	0.000094526551164632	0.000368110935723600	0.000368110935723600	0.000368110935723600	0.000094526551164632	672.301213261820635125
0.000094524366670836	0.000094524366670836	0.000368080005815100	0.000368080005815100	0.000368080005815100	0.000094524366670836	672.311228427593391643
0.000094522171383939	0.000094522171383939	0.000368049086804100	0.000368049086804100	0.000368049086804100	0.000094522171383939	672.321243593366148161
0.000094519957385281	0.000094519957385281	0.000368018153433900	0.000368018153433900	0.000368018153433900	0.000094519957385281	672.331258759139018366
0.000094517774473342	0.000094517774473342	0.000367987218036900	0.000367987218036900	0.000367987218036900	0.000094517774473342	672.341273924911774884
0.000094515570315875	0.000094515570315875	0.000367956285351800	0.000367956285351800	0.000367956285351800	0.000094515570315875	672.351289090684531402
0.000094513386848599	0.000094513386848599	0.000367925353192300	0.000367925353192300	0.000367925353192300	0.000094513386848599	672.361304256457287920
0.000094511179881833	0.000094511179881833	0.000367894422250900	0.000367894422250900	0.000367894422250900	0.000094511179881833	672.371319422230044438
0.000094508977718333	0.000094508977718333	0.000367863473988500	0.000367863473988500	0.000367863473988500	0.000094508977718333	672.381334588002800956
0.000094506793472270	0.000094506793472270	0.000367832522431100	0.000367832522431100	0.000367832522431100	0.000094506793472270	672.391349753775557474
0.000094504615377456	0.000094504615377456	0.000367801578599700	0.000367801578599700	0.000367801578599700	0.000094504615377456	672.401364919548313992
0.000094502436570424	0.000094502436570424	0.000367770644596100	0.000367770644596100	0.000367770644596100	0.000094502436570424	672.411380085321070510
0.000094500237810064	0.000094500237810064	0.000367739705351100	0.000367739705351100	0.000367739705351100	0.000094500237810064	672.421395251093827028
0.000094498048450591	0.000094498048450591	0.000367708753007100	0.000367708753007100	0.000367708753007100	0.000094498048450591	672.431410416866583546
0.000094495867092226	0.000094495867092226	0.000367677798301200	0.000367677798301200	0.000367677798301200	0.000094495867092226	672.441425582639340064
0.000094493695109890	0.000094493695109890	0.000367646850825600	0.000367646850825600	0.000367646850825600	0.000094493695109890	672.451440748412096582
0.000094491508023651	0.000094491508023651	0.000367615903384800	0.000367615903384800	0.000367615903384800	0.000094491508023651	672.461455914184853100
0.000094489329866110	0.000094489329866110	0.000367584952215200	0.000367584952215200	0.000367584952215200	0.000094489329866110	672.471471079957609618
0.000094487140947982	0.000094487140947982	0.000367553995451000	0.000367553995451000	0.000367553995451000	0.000094487140947982	672.481486245730366136
0.000094484970083341	0.000094484970083341	0.000367523037693700	0.000367523037693700	0.000367523037693700	0.000094484970083341	672.491501411503122654
0.000094482786567265	0.000094482786567265	0.000367492085210800	0.000367492085210800	0.000367492085210800	0.000094482786567265	672.501516577275879172
0.000094480593972211	0.000094480593972211	0.000367461118275900	0.000367461118275900	0.000367461118275900	0.000094480593972211	672.511531743048635690
0.000094478423306592	0.000094478423306592	0.000367430148451300	0.000367430148451300	0.000367430148451300	0.000094478423306592	672.521546908821392208
0.000094476237433365	0.000094476237433365	0.000367399177644000	0.000367399177644000	0.000367399177644000	0.000094476237433365	672.531562074594148726
0.000094474065696526	0.000094474065696526	0.000367368200017100	0.000367368200017100	0.000367368200017100	0.000094474065696526	672.541577240366905244
0.000094471895353084	0.000094471895353084	0.000367337228419400	0.000367337228419400	0.000367337228419400	0.000094471895353084	672.551592406139661762
0.000094469714239304	0.000094469714239304	0.000367306256955800	0.000367306256955800	0.000367306256955800	0.000094469714239304	672.561607571912418280
0.000094467520787115	0.000094467520787115	0.000367275266805500	0.000367275266805500	0.000367275266805500	0.000094467520787115	672.571622737685174798
0.000094465354237536	0.000094465354237536	0.000367244265864400	0.000367244265864400	0.000367244265864400	0.000094465354237536	672.581637903457931316
0.000094463193611413	0.000094463193611413	0.000367213276021800	0.000367213276021800	0.000367213276021800	0.000094463193611413	672.591653069230687834
0.000094461017506342	0.000094461017506342	0.000367182283940100	0.000367182283940100	0.000367182283940100	0.000094461017506342	672.601668235003444352
0.000094458850790049	0.000094458850790049	0.000367151284875800	0.000367151284875800	0.000367151284875800	0.000094458850790049	672.611683400776200870
0.000094456679845109	0.000094456679845109	0.000367120282591800	0.000367120282591800	0.000367120282591800	0.000094456679845109	672.621698566548957388
0.000094454517041944	0.000094454517041944	0.000367089279500200	0.000367089279500200	0.000367089279500200	0.000094454517041944	672.631713732321713906
0.000094452341825637	0.000094452341825637	0.000367058273730700	0.000367058273730700	0.000367058273730700	0.000094452341825637	672.641728898094470424
0.000094450163098893	0.000094450163098893	0.000367027246648400	0.000367027246648400	0.000367027246648400	0.000094450163098893	672.651744063867226942
0.000094448023940266	0.000094448023940266	0.000366996224974300	0.000366996224974300	0.000366996224974300	0.000094448023940266	672.661759229639983459
0.000094445853843982	0.000094445853843982	0.000366965211437000	0.000366965211437000	0.000366965211437000	0.000094445853843982	672.671774395412739977
0.000094443692815330	0.000094443692815330	0.000366934186309800	0.000366934186309800	0.000366934186309800	0.000094443692815330	672.681789561185496495
0.000094441529704715	0.000094441529704715	0.000366903158607300	0.000366903158607300	0.000366903158607300	0.000094441529704715	672.691804726958253013
0.000094439368547729	0.000094439368547729	0.000366872128258600	0.000366872128258600	0.000366872128258600	0.000094439368547729	672.701819892731009531
0.000094437198719081	0.000094437198719081	0.000366841089786500	0.000366841089786500	0.000366841089786500	0.000094437198719081	672.711835058503766049
0.000094435038641118	0.000094435038641118	0.000366810043176400	0.000366810043176400	0.000366810043176400	0.000094435038641118	672.721850224276522567
0.000094432877082352	0.000094432877082352	0.000366778993306500	0.000366778993306500	0.000366778993306500	0.000094432877082352	672.731865390049279085
0.000094430718311655	0.000094430718311655	0.000366747938107600	0.000366747938107600	0.000366747938107600	0.000094430718311655	672.741880555822035603
0.000094428559570043	0.000094428559570043	0.000366716877353000	0.000366716877353000	0.000366716877353000	0.000094428559570043	672.751895721594792121
0.000094426406795430	0.000094426406795430	0.000366685815433600	0.000366685815433600	0.000366685815433600	0.000094426406795430	672.761910887367548639
0.000094424238833678	0.000094424238833678	0.000366654739305000	0.000366654739305000	0.000366654739305000	0.000094424238833678	672.771926053140305157
0.000094422107753867	0.000094422107753867	0.000366623663946400	0.000366623663946400	0.000366623663946400	0.000094422107753867	672.781941218913061675
0.000094419950141506	0.000094419950141506	0.000366592598616700	0.000366592598616700	0.000366592598616700	0.000094419950141506	672.791956384685818193
0.000094417785222888	0.000094417785222888	0.000366561513952300	0.000366561513952300	0.000366561513952300	0.000094417785222888	672.801971550458574711
0.000094415639399908	0.000094415639399908	0.000366530422727100	0.000366530422727100	0.000366530422727100	0.000094415639399908	672.811986716231331229
0.000094413484095798	0.000094413484095798	0.000366499330078900	0.000366499330078900	0.000366499330078900	0.000094413484095798	672.822001882004087747
