beta_para beta_perp delta_para delta_perp delta beta energy
9.470966787293467e-05 9.470966787293467e-05 0.00036901205789155445 0.00037142586711866104 0.0003706212640429589 9.470966787293465e-05 671.5
9.470695207107993e-05 9.470706523622866e-05 0.0003689769590233564 0.0003713920884701303 0.0003705870453212057 9.470702751451241e-05 671.5100151657728
9.470427262160433e-05 9.470446265556504e-05 0.00036894282530193685 0.0003713593234001546 0.00037055382403408205 9.470439931091148e-05 671.5200303315455
9.47015571686546e-05 9.470184148139363e-05 0.0003689090383292633 0.000371326917423714 0.0003705209577255638 9.470174671048061e-05 671.5300454973183
9.46988778454488e-05 9.469923929592174e-05 0.00036887546547180277 0.000371294730189836 0.0003704883086171583 9.469911881243077e-05 671.540060663091
9.469616274136273e-05 9.469665520512905e-05 0.0003688420426956526 0.0003712627261306116 0.00037045583165229196 9.469649105054027e-05 671.5500758288638
9.469348354441186e-05 9.469403445760686e-05 0.0003688087306886082 0.0003712308479648724 0.000370423475539451 9.46938508198752e-05 671.5600909946365
9.469076878914811e-05 9.469143250015957e-05 0.0003687755019064771 0.0003711990550409 0.0003703912039960924 9.469121126315574e-05 671.5701061604093
9.46880897184373e-05 9.468883042749124e-05 0.00036874233410508206 0.0003711673466418354 0.0003703590091295843 9.468858352447326e-05 671.580121326182
9.468537531195448e-05 9.468621010709009e-05 0.0003687092069049505 0.0003711356864978105 0.00037032685996685714 9.468593184204488e-05 671.5901364919548
9.468269636746887e-05 9.468360848945587e-05 0.0003686760961892195 0.00037110405249469937 0.00037029473372620606 9.468330444879353e-05 671.6001516577276
9.467998230972566e-05 9.468100667099185e-05 0.00036864294431181285 0.0003710724036719795 0.00037026258388525726 9.468066521723646e-05 671.6101668235003
9.467744936552667e-05 9.467855146059879e-05 0.00036860977985518775 0.00037104077627654814 0.0003702304441360947 9.467818409557474e-05 671.6201819892731
9.46749468107133e-05 9.467614042789861e-05 0.00036857665161783403 0.00037100923033738713 0.00037019837076420273 9.467574255550349e-05 671.6301971550458
9.467257954889645e-05 9.467377463210555e-05 0.00036854353055235486 0.0003709777349795674 0.0003701663335038299 9.467337627103585e-05 671.6402123208186
9.467039670109984e-05 9.46714970538794e-05 0.00036851054280763424 0.00037094631945293056 0.0003701343939044985 9.467113026961954e-05 671.6502274865913
9.466818584597715e-05 9.46692398001625e-05 0.0003684777080344412 0.000370915013219652 0.0003701025781579151 9.466888848210073e-05 671.6602426523641
9.466598718896393e-05 9.466696681035872e-05 0.00036844496244458236 0.0003708837846086997 0.00037007084388732727 9.466664026989379e-05 671.6702578181369
9.466374723322942e-05 9.466469404188715e-05 0.00036841226552941647 0.0003708526108269705 0.0003700391623944525 9.466437843900123e-05 671.6802729839096
9.466157126446059e-05 9.466241432736226e-05 0.00036837962429251596 0.00037082148135524485 0.0003700075290010019 9.466213330639504e-05 671.6902881496824
9.465935221384452e-05 9.46601461765913e-05 0.00036834704195922786 0.00037079039125580897 0.000369975941490282 9.465988152234236e-05 671.7003033154551
9.465717039423102e-05 9.465788786527906e-05 0.00036831449566982854 0.00037075935165910593 0.00036994439966268016 9.465764870826305e-05 671.7103184812279
9.465499468997022e-05 9.46556152420454e-05 0.0003682820228483191 0.0003707283553024636 0.0003699129111510821 9.465540839135367e-05 671.7203336470006
9.465276206485618e-05 9.465333624124747e-05 0.00036824958011749204 0.0003706973834063316 0.00036988144897671845 9.465314484911702e-05 671.7303488127734
9.465055671228946e-05 9.465106873730731e-05 0.0003682171443623447 0.00037066643662551566 0.00036985000587112533 9.465089806230137e-05 671.7403639785462
9.464836177208438e-05 9.464881049627611e-05 0.00036818473940887893 0.0003706355248353413 0.00036981859635985386 9.464866092154554e-05 671.7503791443189
9.46461865577489e-05 9.464655343671718e-05 0.00036815237334780683 0.0003706046554541616 0.0003697872280853767 9.464643114372775e-05 671.7603943100917
9.464401129495705e-05 9.464426292429158e-05 0.00036812006198941457 0.00037057380256495245 0.0003697558890397732 9.464417904784672e-05 671.7704094758644
9.464177911978581e-05 9.464199240484555e-05 0.00036808775489006725 0.00037054294908432086 0.00036972455101956964 9.464192130982563e-05 671.7804246416373
9.463961837000594e-05 9.463975754342888e-05 0.0003680554677634661 0.0003705121320916508 0.00036969324398225593 9.463971115228791e-05 671.79043980741
9.46374083515797e-05 9.46375069956599e-05 0.0003680232203271922 0.0003704813605742537 0.0003696619804918998 9.463747411429984e-05 671.8004549731828
9.463520494419327e-05 9.463523405669219e-05 0.00036799096585118343 0.000370450601757445 0.00036963072312202447 9.463522435252589e-05 671.8104701389556
9.463304462269127e-05 9.463297993627412e-05 0.00036795874743125116 0.00037041985898793913 0.0003695994884690431 9.463300149841317e-05 671.8204853047283
9.463083470653896e-05 9.463070865183537e-05 0.000367926551341909 0.00037038913455175694 0.0003695682734818076 9.46307506700699e-05 671.8305004705011
9.462866193311989e-05 9.462844944936973e-05 0.000367894362773981 0.0003703584202542152 0.0003695370677608038 9.462852027728645e-05 671.8405156362738
9.462647755846815e-05 9.462619660033376e-05 0.0003678622038610421 0.0003703277340192095 0.00036950589063315366 9.462629025304523e-05 671.8505308020466
9.462429233423827e-05 9.462391059974817e-05 0.00036783006275394677 0.00037029704735018563 0.00036947471915143936 9.46240378445782e-05 671.8605459678193
9.462209325279401e-05 9.462167715283191e-05 0.0003677979309815199 0.0003702663713152469 0.0003694435578706712 9.462181585281929e-05 671.8705611335921
9.461990161217368e-05 9.46194249456155e-05 0.00036776580101705194 0.0003702357299071648 0.0003694124202771271 9.461958383446823e-05 671.8805762993649
9.46177261109944e-05 9.461716944622007e-05 0.0003677336869930158 0.000370205102802815 0.00036938129753288196 9.461735500114483e-05 671.8905914651376
9.461555199284001e-05 9.461490102867422e-05 0.00036770160311999113 0.0003701744841253144 0.00036935019045687326 9.46151180167295e-05 671.9006066309104
9.461333597585797e-05 9.461262850965888e-05 0.0003676695100397435 0.0003701438559166986 0.00036931907395771355 9.461286433172523e-05 671.9106217966831
9.461118565457496e-05 9.461039873648477e-05 0.00036763742523876643 0.0003701132422658721 0.00036928796992350354 9.461066104251484e-05 671.9206369624559
9.460900154503175e-05 9.460815594756725e-05 0.0003676053725673382 0.0003700826585550731 0.0003692568965591615 9.460843781338876e-05 671.9306521282286
9.460681746688168e-05 9.460591290218477e-05 0.00036757331889717993 0.0003700520912889468 0.00036922583382502453 9.460621442375041e-05 671.9406672940014
9.460463590066573e-05 9.460365707249989e-05 0.00036754126429414444 0.0003700215413683262 0.00036919478234359896 9.460398334855517e-05 671.9506824597742
9.460248592696573e-05 9.460137054682864e-05 0.0003675092329632019 0.0003699909759773964 0.00036916372830599824 9.460174234020767e-05 671.9606976255469
9.460030194885429e-05 9.459913330142402e-05 0.0003674772221451804 0.0003699604097555403 0.000369132680552087 9.459952285056744e-05 671.9707127913197
9.45981184424641e-05 9.459688024549429e-05 0.0003674452061517403 0.00036992986262428175 0.00036910164380010127 9.459729297781756e-05 671.9807279570924
9.459593722752862e-05 9.459463874050017e-05 0.0003674131867587613 0.0003698993183758305 0.0003690706078368074 9.459507156950965e-05 671.9907431228652
9.459378484944662e-05 9.459240963818702e-05 0.0003673811860788529 0.00036986879404238293 0.00036903959138787296 9.459286804194021e-05 672.0007582886379
9.459160155911478e-05 9.459016634694644e-05 0.00036734920002972244 0.0003698382891186121 0.0003690085927556489 9.459064475100256e-05 672.0107734544107
9.458942576703382e-05 9.458790665410857e-05 0.00036731720661480137 0.00036980778289741323 0.00036897759080320924 9.458841302508365e-05 672.0207886201835
9.458726843491047e-05 9.458565438799606e-05 0.0003672852351264072 0.0003697772702006652 0.0003689465918425792 9.458619240363421e-05 672.0308037859562
9.458505922774706e-05 9.458341756522158e-05 0.00036725325510206973 0.00036974676984926973 0.00036891559826686973 9.45839647860634e-05 672.040818951729
9.458290520701923e-05 9.4581159619947e-05 0.00036722126761940443 0.0003697162700368945 0.00036888460256439783 9.458174148230441e-05 672.0508341175017
9.458072932523557e-05 9.45789326302797e-05 0.00036718929538026823 0.0003696857718239667 0.00036885361300940055 9.457953152859832e-05 672.0608492832745
9.457857256154077e-05 9.457670668468391e-05 0.00036715732593065373 0.000369655303293961 0.00036882264417285854 9.45773286436362e-05 672.0708644490472
9.457641107408619e-05 9.457444138785113e-05 0.0003671253723404096 0.00036962483288439485 0.0003687916793697331 9.457509794992948e-05 672.08087961482
9.457423512423155e-05 9.457220101079063e-05 0.00036709341637398084 0.0003695943551895909 0.0003687607089177209 9.457287904860427e-05 672.0908947805927
9.457207878596122e-05 9.456994287033774e-05 0.000367061465301293 0.000369563873980869 0.00036872973775434366 9.457065484221223e-05 672.1009099463655
9.456990164134893e-05 9.456771881625107e-05 0.0003670295208475541 0.00036953339155139787 0.00036869876798345 9.456844642461702e-05 672.1109251121383
9.456772156617713e-05 9.456549490623919e-05 0.0003669975560256094 0.0003695029281252265 0.0003686678040920208 9.45662371262185e-05 672.120940277911
9.45655892595404e-05 9.456326907412185e-05 0.00036696560129556154 0.00036947247763363406 0.00036863685218760985 9.456404246926135e-05 672.1309554436838
9.45634416657121e-05 9.456102851776135e-05 0.00036693368606318413 0.0003694420284748416 0.0003686059143376225 9.456183290041161e-05 672.1409706094565
9.45612290982776e-05 9.455879638720772e-05 0.00036690174106078136 0.00036941157674595844 0.0003685749648508994 9.455960729089768e-05 672.1509857752293
9.455909721480309e-05 9.455656913098664e-05 0.0003668697791654771 0.00036938113614828894 0.00036854401715401833 9.455741182559212e-05 672.161000941002
9.455695323605844e-05 9.455432301375846e-05 0.0003668378557930455 0.0003693506950301987 0.00036851308195114764 9.455519975452511e-05 672.1710161067748
9.455477368457171e-05 9.455208899336739e-05 0.00036680592030244145 0.0003693202479390928 0.0003684821387268757 9.45529838904355e-05 672.1810312725476
9.455263842765178e-05 9.454985545680588e-05 0.0003667739834556686 0.0003692898014311068 0.00036845119543929403 9.45507831137545e-05 672.1910464383203
9.455047864199553e-05 9.454763864997362e-05 0.000366742065811428 0.00036925936593479845 0.0003684202658936749 9.454858531398091e-05 672.2010616040931
9.454830241892453e-05 9.454540073168823e-05 0.00036671013125005896 0.0003692289378825688 0.00036838933567173216 9.4546367960767e-05 672.2110767698658
9.454615174065598e-05 9.454316550056533e-05 0.00036667818513563816 0.00036919850434636605 0.0003683583979427901 9.454416091392888e-05 672.2210919356386
9.454402067130094e-05 9.454092559581093e-05 0.0003666462657901667 0.00036916806276105207 0.00036832746377075693 9.454195728764094e-05 672.2311071014113
9.454182892108641e-05 9.453871120901132e-05 0.00036661433307348933 0.0003691376253341081 0.00036829652791390183 9.453975044636969e-05 672.2411222671841
9.453969830449848e-05 9.453648771306463e-05 0.0003665823844477778 0.0003691072059292817 0.0003682655987687804 9.453755791020925e-05 672.2511374329569
9.453755460592203e-05 9.453423878207075e-05 0.00036655045696183794 0.00036907677519148335 0.0003682346691149349 9.453534405668785e-05 672.2611525987296
9.453540853200762e-05 9.453201597112172e-05 0.00036651853212896744 0.00036904633424807067 0.0003682037335417029 9.453314682475037e-05 672.2711677645024
9.453324915784362e-05 9.452979347197759e-05 0.0003664865980702877 0.00036901590133011204 0.00036817280024350395 9.453094536726626e-05 672.2811829302751
9.453111475868058e-05 9.452757109246714e-05 0.00036645466546479514 0.00036898547038879015 0.00036814186874745846 9.452875231453829e-05 672.2911980960479
9.452895638795155e-05 9.452534855297252e-05 0.00036642273066379453 0.0003689550382536237 0.00036811093572368067 9.45265511646322e-05 672.3012132618206
9.452683001715315e-05 9.452313499767759e-05 0.0003663907964759655 0.00036892461048470724 0.00036808000581512666 9.452436667083611e-05 672.3112284275934
9.452468650348463e-05 9.452091382416655e-05 0.0003663588818846298 0.0003688941892638352 0.00036804908680410005 9.452217138393924e-05 672.3212435933661
9.452250825773885e-05 9.451868194905206e-05 0.00036632694437378543 0.00036886375796400746 0.00036801815343393343 9.451995738528098e-05 672.331258759139
9.452037428673334e-05 9.451647456664586e-05 0.0003662949960614853 0.00036883332902464856 0.0003679872180369275 9.451777447334169e-05 672.3412739249118
9.451821662262298e-05 9.451424716250097e-05 0.00036626304742997496 0.00036880290431274404 0.000367956285351821 9.451557031587497e-05 672.3512890906845
9.451609067875548e-05 9.451203493352128e-05 0.00036623109289667555 0.00036877248334018327 0.00036792535319234734 9.451338684859935e-05 672.3613042564573
9.451396481961174e-05 9.450978741294305e-05 0.00036619915863312437 0.00036874205405985563 0.0003678944222509452 9.451117988183262e-05 672.37131942223
9.451180575825399e-05 9.450756369837243e-05 0.00036616721359371734 0.000368711604186041 0.0003678634739885998 9.450897771833294e-05 672.3813345880028
9.450967710687466e-05 9.450535165496807e-05 0.00036613525453000733 0.0003686811563817647 0.0003678325224311789 9.450679347227026e-05 672.3913497537756
9.450755150295376e-05 9.450314731470672e-05 0.00036610330655546325 0.0003686507146218622 0.00036780157859972923 9.450461537745573e-05 672.4013649195483
9.450542098141932e-05 9.450094436492676e-05 0.00036607136739546213 0.00036862028319652955 0.0003677706445961737 9.450243657042429e-05 672.4113800853211
9.450326430385868e-05 9.449872456316705e-05 0.0003660394129970271 0.0003685898515282456 0.00036773970535117277 9.450023781006425e-05 672.4213952510938
9.45011389551176e-05 9.44965031983281e-05 0.00036600744720053513 0.0003685594059104339 0.0003677087530071343 9.449804845059128e-05 672.4314104168666
9.449901369106707e-05 9.449429379280503e-05 0.00036597549816128516 0.00036852894837118586 0.000367677798301219 9.449586709222571e-05 672.4414255826393
9.449685484696158e-05 9.449211524135359e-05 0.00036594353507289824 0.0003684985087020619 0.000367646850825674 9.449369510988959e-05 672.4514407484121
9.449472717597405e-05 9.448989844748948e-05 0.0003659115548300237 0.00036846807766218847 0.00036761590338480024 9.4491508023651e-05 672.4614559141849
9.449260216704613e-05 9.448769371564136e-05 0.0003658795810217698 0.00036843763781191943 0.0003675849522152029 9.448932986610963e-05 672.4714710799576
9.449047724278973e-05 9.448547280057837e-05 0.0003658476081402395 0.0003684071891065302 0.0003675539954510999 9.448714094798216e-05 672.4814862457304
9.448835240320011e-05 9.4483278923412e-05 0.00036581563608926695 0.0003683767384959843 0.00036752303769374523 9.448497008334137e-05 672.4915014115031
9.44862221526929e-05 9.448106877455164e-05 0.0003657836660831945 0.00036834629477464195 0.00036749208521082616 9.448278656726539e-05 672.5015165772759
9.448406674235464e-05 9.44788575871393e-05 0.00036575167115268165 0.00036831584183765875 0.00036746111827599975 9.448059397221107e-05 672.5115317430486
9.448196047422383e-05 9.447665472277558e-05 0.000365719664160569 0.00036828539059675556 0.00036743014845136006 9.447842330659166e-05 672.5215469088214
9.447985389141474e-05 9.447442920434027e-05 0.0003656876785493677 0.0003682549271913975 0.0003673991776440542 9.447623743336509e-05 672.5315620745941
9.447772947508798e-05 9.447223380724426e-05 0.0003656556943441831 0.00036822445285362765 0.00036736820001714615 9.447406569652551e-05 672.5415772403669
9.44756051433996e-05 9.447004045792664e-05 0.0003656237021601038 0.00036819399154918364 0.0003673372284194903 9.44718953530843e-05 672.5515924061397
9.447348089634484e-05 9.446783091078328e-05 0.000365591712479738 0.000368163529193935 0.0003673062569558693 9.44697142393038e-05 672.5616075719124
9.447132242187621e-05 9.446561996973408e-05 0.0003655596968425939 0.00036813305178705596 0.0003672752668055686 9.44675207871148e-05 672.5716227376852
9.446921507081433e-05 9.446342382089654e-05 0.0003655276632679882 0.0003681025671627182 0.0003672442658644749 9.44653542375358e-05 672.5816379034579
9.4467108662935e-05 9.446123608565142e-05 0.0003654956485576903 0.0003680720897538954 0.00036721327602182705 9.446319361141262e-05 672.5916530692307
9.44649847543674e-05 9.445903388232926e-05 0.0003654636327148389 0.00036804160955280477 0.0003671822839401495 9.446101750634197e-05 672.6016682350034
9.446286093040976e-05 9.44568457198686e-05 0.0003654316045459189 0.0003680111250408842 0.00036715128487589574 9.445885079004899e-05 672.6116834007762
9.446073719105733e-05 9.445465117213531e-05 0.0003653995627829936 0.0003679806424963241 0.0003671202825918806 9.445667984510932e-05 672.621698566549
9.445863245099341e-05 9.445245933741905e-05 0.00036536751679944966 0.00036795016085065005 0.0003670892795002499 9.445451704194383e-05 672.6317137323217
9.445652618777063e-05 9.445024964457033e-05 0.0003653354770105873 0.00036791967209081635 0.00036705827373074003 9.44523418256371e-05 672.6417288980945
9.445440270112688e-05 9.444804329777658e-05 0.000365303417344509 0.0003678891613004596 0.000367027246648476 9.445016309889334e-05 672.6517440638672
9.445233317407098e-05 9.444586932336344e-05 0.0003652713635283214 0.00036785865569741714 0.0003669962249743853 9.444802394026595e-05 672.66175922964
9.445022841836513e-05 9.444366655679036e-05 0.00036523933210132545 0.00036782815110484863 0.00036696521143700757 9.444585384398196e-05 672.6717743954127
9.444810518330929e-05 9.444148663134014e-05 0.0003652072801574793 0.0003677976393860016 0.0003669341863098275 9.444369281532985e-05 672.6817895611855
9.444600127368279e-05 9.443929392023172e-05 0.00036517521586982134 0.0003677671299761189 0.000366903158607353 9.444152970471542e-05 672.6918047269583
9.444389518206003e-05 9.443710523056294e-05 0.0003651431560741545 0.0003677366143508676 0.0003668721282586299 9.443936854772863e-05 672.701819892731
9.444177219962839e-05 9.443491197880729e-05 0.0003651110830803576 0.00036770609313957356 0.00036684108978650155 9.4437198719081e-05 672.7118350585038
9.443966870565276e-05 9.443272360884992e-05 0.0003650789990078849 0.0003676755652607371 0.00036681004317645305 9.443503864111753e-05 672.7218502242765
9.443756270035038e-05 9.443053427335311e-05 0.00036504691912479906 0.00036764503039736984 0.0003667789933065129 9.44328770823522e-05 672.7318653900493
9.443543997050066e-05 9.442835748223275e-05 0.00036501482486963666 0.00036761449472661335 0.0003667479381076211 9.443071831165538e-05 672.741880555822
9.443333689210436e-05 9.442617090901233e-05 0.0003649827175906663 0.0003675839572343121 0.00036671687735309686 9.442855957004301e-05 672.7518957215948
9.44312309731097e-05 9.442399470659e-05 0.000364950607143236 0.0003675534195788447 0.00036668581543364184 9.442640679542991e-05 672.7619108873675
9.442912817136725e-05 9.442179416483396e-05 0.00036491848195989055 0.0003675228679776248 0.0003666547393050467 9.442423883367838e-05 672.7719260531403
9.442705775324816e-05 9.441963275417571e-05 0.00036488636631772575 0.00036749231276080074 0.0003666236639464424 9.442210775386652e-05 672.7819412189131
9.442495598987182e-05 9.441744721732246e-05 0.0003648542603916096 0.0003674617677292774 0.0003665925986167215 9.441995014150557e-05 672.7919563846858
9.442285018413801e-05 9.44152527422633e-05 0.00036482213825871307 0.00036743120179911343 0.00036656151395231333 9.44177852228882e-05 672.8019715504586
9.442074793453036e-05 9.441308513259678e-05 0.0003647900066812224 0.00036740063075011684 0.000366530422727152 9.441563939990796e-05 672.8119867162313
