beta_para	beta_perp	delta_para	delta_perp	delta	beta	energy
0.000094709667872935	0.000094709667872935	0.000370301712074700	0.000370301712074700	0.000370301712074700	0.000094709667872935	671.500000000000000000
0.000094707027955547	0.000094707027955547	0.000370267432184900	0.000370267432184900	0.000370267432184900	0.000094707027955547	671.510021909648685323
0.000094704387913910	0.000094704387913910	0.000370234143136900	0.000370234143136900	0.000370234143136900	0.000094704387913910	671.520043819297256960
0.000094701760758526	0.000094701760758526	0.000370201225034600	0.000370201225034600	0.000370201225034600	0.000094701760758526	671.530065728945942283
0.000094699108958551	0.000094699108958551	0.000370168531679600	0.000370168531679600	0.000370168531679600	0.000094699108958551	671.540087638594627606
0.000094696482056075	0.000094696482056075	0.000370135998171500	0.000370135998171500	0.000370135998171500	0.000094696482056075	671.550109548243199242
0.000094693842589243	0.000094693842589243	0.000370103594787500	0.000370103594787500	0.000370103594787500	0.000094693842589243	671.560131457891884565
0.000094691215673646	0.000094691215673646	0.000370071294915500	0.000370071294915500	0.000370071294915500	0.000094691215673646	671.570153367540569889
0.000094688564768604	0.000094688564768604	0.000370039068500000	0.000370039068500000	0.000370039068500000	0.000094688564768604	671.580175277189141525
0.000094685949884025	0.000094685949884025	0.000370006911408500	0.000370006911408500	0.000370006911408500	0.000094685949884025	671.590197186837826848
0.000094683298829967	0.000094683298829967	0.000369974812431000	0.000369974812431000	0.000369974812431000	0.000094683298829967	671.600219096486512171
0.000094680660364300	0.000094680660364300	0.000369942736959000	0.000369942736959000	0.000369942736959000	0.000094680660364300	671.610241006135197495
0.000094678033785729	0.000094678033785729	0.000369910692298600	0.000369910692298600	0.000369910692298600	0.000094678033785729	671.620262915783769131
0.000094675395259268	0.000094675395259268	0.000369878643020000	0.000369878643020000	0.000369878643020000	0.000094675395259268	671.630284825432454454
0.000094672827548894	0.000094672827548894	0.000369846571465900	0.000369846571465900	0.000369846571465900	0.000094672827548894	671.640306735081139777
0.000094670384145172	0.000094670384145172	0.000369814560670800	0.000369814560670800	0.000369814560670800	0.000094670384145172	671.650328644729711414
0.000094667938935987	0.000094667938935987	0.000369782638908800	0.000369782638908800	0.000369782638908800	0.000094667938935987	671.660350554378396737
0.000094665492337732	0.000094665492337732	0.000369750752789500	0.000369750752789500	0.000369750752789500	0.000094665492337732	671.670372464027082060
0.000094663075938493	0.000094663075938493	0.000369718903595700	0.000369718903595700	0.000369718903595700	0.000094663075938493	671.680394373675653696
0.000094660631463087	0.000094660631463087	0.000369687058319200	0.000369687058319200	0.000369687058319200	0.000094660631463087	671.690416283324339020
0.000094658260384469	0.000094658260384469	0.000369655189575400	0.000369655189575400	0.000369655189575400	0.000094658260384469	671.700438192973024343
0.000094656015095958	0.000094656015095958	0.000369623390090100	0.000369623390090100	0.000369623390090100	0.000094656015095958	671.710460102621595979
0.000094653756667696	0.000094653756667696	0.000369591683052100	0.000369591683052100	0.000369591683052100	0.000094653756667696	671.720482012270281302
0.000094651511927717	0.000094651511927717	0.000369560026696700	0.000369560026696700	0.000369560026696700	0.000094651511927717	671.730503921918966626
0.000094649267900119	0.000094649267900119	0.000369528415576400	0.000369528415576400	0.000369528415576400	0.000094649267900119	671.740525831567538262
0.000094647040807473	0.000094647040807473	0.000369496851426500	0.000369496851426500	0.000369496851426500	0.000094647040807473	671.750547741216223585
0.000094644801255074	0.000094644801255074	0.000369465332501800	0.000369465332501800	0.000369465332501800	0.000094644801255074	671.760569650864908908
0.000094642553355462	0.000094642553355462	0.000369433836847200	0.000369433836847200	0.000369433836847200	0.000094642553355462	671.770591560513480545
0.000094640324048250	0.000094640324048250	0.000369402372862200	0.000369402372862200	0.000369402372862200	0.000094640324048250	671.780613470162165868
0.000094638075006424	0.000094638075006424	0.000369370934229900	0.000369370934229900	0.000369370934229900	0.000094638075006424	671.790635379810851191
0.000094635850866109	0.000094635850866109	0.000369339521495800	0.000369339521495800	0.000369339521495800	0.000094635850866109	671.800657289459422827
0.000094633607034927	0.000094633607034927	0.000369308137444900	0.000369308137444900	0.000369308137444900	0.000094633607034927	671.810679199108108151
0.000094631370606691	0.000094631370606691	0.000369276766680800	0.000369276766680800	0.000369276766680800	0.000094631370606691	671.820701108756793474
0.000094629146397558	0.000094629146397558	0.000369245426295500	0.000369245426295500	0.000369245426295500	0.000094629146397558	671.830723018405478797
0.000094626900804158	0.000094626900804158	0.000369214109694200	0.000369214109694200	0.000369214109694200	0.000094626900804158	671.840744928054050433
0.000094624650074043	0.000094624650074043	0.000369182794235000	0.000369182794235000	0.000369182794235000	0.000094624650074043	671.850766837702735756
0.000094622422728401	0.000094622422728401	0.000369151492685200	0.000369151492685200	0.000369151492685200	0.000094622422728401	671.860788747351421080
0.000094620194198237	0.000094620194198237	0.000369120219048500	0.000369120219048500	0.000369120219048500	0.000094620194198237	671.870810656999992716
0.000094617951823931	0.000094617951823931	0.000369088955802800	0.000369088955802800	0.000369088955802800	0.000094617951823931	671.880832566648678039
0.000094615725641900	0.000094615725641900	0.000369057704601500	0.000369057704601500	0.000369057704601500	0.000094615725641900	671.890854476297363362
0.000094613488423283	0.000094613488423283	0.000369026466182700	0.000369026466182700	0.000369026466182700	0.000094613488423283	671.900876385945934999
0.000094611266944280	0.000094611266944280	0.000368995238905400	0.000368995238905400	0.000368995238905400	0.000094611266944280	671.910898295594620322
0.000094609042186703	0.000094609042186703	0.000368964030478300	0.000368964030478300	0.000368964030478300	0.000094609042186703	671.920920205243305645
0.000094606813125191	0.000094606813125191	0.000368932829557600	0.000368932829557600	0.000368932829557600	0.000094606813125191	671.930942114891877281
0.000094604597636450	0.000094604597636450	0.000368901641184600	0.000368901641184600	0.000368901641184600	0.000094604597636450	671.940964024540562605
0.000094602378178261	0.000094602378178261	0.000368870471959500	0.000368870471959500	0.000368870471959500	0.000094602378178261	671.950985934189247928
0.000094600151733849	0.000094600151733849	0.000368839313789400	0.000368839313789400	0.000368839313789400	0.000094600151733849	671.961007843837819564
0.000094597920282080	0.000094597920282080	0.000368808159659900	0.000368808159659900	0.000368808159659900	0.000094597920282080	671.971029753486504887
0.000094595692213535	0.000094595692213535	0.000368777006466000	0.000368777006466000	0.000368777006466000	0.000094595692213535	671.981051663135190211
0.000094593481646117	0.000094593481646117	0.000368745872535100	0.000368745872535100	0.000368745872535100	0.000094593481646117	671.991073572783761847
0.000094591234555836	0.000094591234555836	0.000368714738108400	0.000368714738108400	0.000368714738108400	0.000094591234555836	672.001095482432447170
0.000094589026601756	0.000094589026601756	0.000368683600839900	0.000368683600839900	0.000368683600839900	0.000094589026601756	672.011117392081132493
0.000094586812075921	0.000094586812075921	0.000368652482674000	0.000368652482674000	0.000368652482674000	0.000094586812075921	672.021139301729704130
0.000094584604311742	0.000094584604311742	0.000368621378779900	0.000368621378779900	0.000368621378779900	0.000094584604311742	672.031161211378389453
0.000094582378360228	0.000094582378360228	0.000368590282404500	0.000368590282404500	0.000368590282404500	0.000094582378360228	672.041183121027074776
0.000094580157560588	0.000094580157560588	0.000368559184773800	0.000368559184773800	0.000368559184773800	0.000094580157560588	672.051205030675760099
0.000094577938817822	0.000094577938817822	0.000368528094843600	0.000368528094843600	0.000368528094843600	0.000094577938817822	672.061226940324331736
0.000094575709774185	0.000094575709774185	0.000368497002957900	0.000368497002957900	0.000368497002957900	0.000094575709774185	672.071248849973017059
0.000094573498533310	0.000094573498533310	0.000368465911347300	0.000368465911347300	0.000368465911347300	0.000094573498533310	672.081270759621702382
0.000094571286567664	0.000094571286567664	0.000368434827170700	0.000368434827170700	0.000368434827170700	0.000094571286567664	672.091292669270274018
0.000094569087996637	0.000094569087996637	0.000368403755795600	0.000368403755795600	0.000368403755795600	0.000094569087996637	672.101314578918959342
0.000094566873453080	0.000094566873453080	0.000368372696149800	0.000368372696149800	0.000368372696149800	0.000094566873453080	672.111336488567644665
0.000094564653495635	0.000094564653495635	0.000368341632072300	0.000368341632072300	0.000368341632072300	0.000094564653495635	672.121358398216216301
0.000094562442966581	0.000094562442966581	0.000368310570008200	0.000368310570008200	0.000368310570008200	0.000094562442966581	672.131380307864901624
0.000094560224729503	0.000094560224729503	0.000368279509854400	0.000368279509854400	0.000368279509854400	0.000094560224729503	672.141402217513586947
0.000094558015491568	0.000094558015491568	0.000368248450276700	0.000368248450276700	0.000368248450276700	0.000094558015491568	672.151424127162158584
0.000094555802677700	0.000094555802677700	0.000368217393544200	0.000368217393544200	0.000368217393544200	0.000094555802677700	672.161446036810843907
0.000094553593372906	0.000094553593372906	0.000368186332901800	0.000368186332901800	0.000368186332901800	0.000094553593372906	672.171467946459529230
0.000094551403346716	0.000094551403346716	0.000368155283360100	0.000368155283360100	0.000368155283360100	0.000094551403346716	672.181489856108100867
0.000094549197571734	0.000094549197571734	0.000368124247715900	0.000368124247715900	0.000368124247715900	0.000094549197571734	672.191511765756786190
0.000094546980442816	0.000094546980442816	0.000368093205412500	0.000368093205412500	0.000368093205412500	0.000094546980442816	672.201533675405471513
0.000094544773267038	0.000094544773267038	0.000368062159677700	0.000368062159677700	0.000368062159677700	0.000094544773267038	672.211555585054043149
0.000094542557578424	0.000094542557578424	0.000368031107231600	0.000368031107231600	0.000368031107231600	0.000094542557578424	672.221577494702728472
0.000094540370098677	0.000094540370098677	0.000368000057186800	0.000368000057186800	0.000368000057186800	0.000094540370098677	672.231599404351413796
0.000094538174643428	0.000094538174643428	0.000367969023625600	0.000367969023625600	0.000367969023625600	0.000094538174643428	672.241621313999985432
0.000094535963752535	0.000094535963752535	0.000367937984005300	0.000367937984005300	0.000367937984005300	0.000094535963752535	672.251643223648670755
0.000094533770401250	0.000094533770401250	0.000367906940709300	0.000367906940709300	0.000367906940709300	0.000094533770401250	672.261665133297356078
0.000094531573250921	0.000094531573250921	0.000367875902859300	0.000367875902859300	0.000367875902859300	0.000094531573250921	672.271687042946041402
0.000094529380240020	0.000094529380240020	0.000367844869017000	0.000367844869017000	0.000367844869017000	0.000094529380240020	672.281708952594613038
0.000094527174560800	0.000094527174560800	0.000367813831818800	0.000367813831818800	0.000367813831818800	0.000094527174560800	672.291730862243298361
0.000094524982445972	0.000094524982445972	0.000367782789622100	0.000367782789622100	0.000367782789622100	0.000094524982445972	672.301752771891983684
0.000094522794980937	0.000094522794980937	0.000367751757487800	0.000367751757487800	0.000367751757487800	0.000094522794980937	672.311774681540555321
0.000094520590518987	0.000094520590518987	0.000367720724307500	0.000367720724307500	0.000367720724307500	0.000094520590518987	672.321796591189240644
0.000094518392855695	0.000094518392855695	0.000367689681271700	0.000367689681271700	0.000367689681271700	0.000094518392855695	672.331818500837925967
0.000094516204714223	0.000094516204714223	0.000367658641725600	0.000367658641725600	0.000367658641725600	0.000094516204714223	672.341840410486497603
0.000094514007234584	0.000094514007234584	0.000367627603658100	0.000367627603658100	0.000367627603658100	0.000094514007234584	672.351862320135182927
0.000094511808828811	0.000094511808828811	0.000367596553890200	0.000367596553890200	0.000367596553890200	0.000094511808828811	672.361884229783868250
0.000094509633902568	0.000094509633902568	0.000367565506113600	0.000367565506113600	0.000367565506113600	0.000094509633902568	672.371906139432439886
0.000094507457301176	0.000094507457301176	0.000367534479547400	0.000367534479547400	0.000367534479547400	0.000094507457301176	672.381928049081125209
0.000094505240373781	0.000094505240373781	0.000367503440710600	0.000367503440710600	0.000367503440710600	0.000094505240373781	672.391949958729810533
0.000094503054050988	0.000094503054050988	0.000367472384008600	0.000367472384008600	0.000367472384008600	0.000094503054050988	672.401971868378382169
0.000094500869137029	0.000094500869137029	0.000367441334771900	0.000367441334771900	0.000367441334771900	0.000094500869137029	672.411993778027067492
0.000094498680721375	0.000094498680721375	0.000367410285766200	0.000367410285766200	0.000367410285766200	0.000094498680721375	672.422015687675752815
0.000094496488529614	0.000094496488529614	0.000367379228001200	0.000367379228001200	0.000367379228001200	0.000094496488529614	672.432037597324324452
0.000094494314093365	0.000094494314093365	0.000367348171118100	0.000367348171118100	0.000367348171118100	0.000094494314093365	672.442059506973009775
0.000094492126832966	0.000094492126832966	0.000367317116611400	0.000367317116611400	0.000367317116611400	0.000094492126832966	672.452081416621695098
0.000094489943638938	0.000094489943638938	0.000367286053434400	0.000367286053434400	0.000367286053434400	0.000094489943638938	672.462103326270266734
0.000094487769855602	0.000094487769855602	0.000367254991009100	0.000367254991009100	0.000367254991009100	0.000094487769855602	672.472125235918952058
0.000094485592701104	0.000094485592701104	0.000367223931801200	0.000367223931801200	0.000367223931801200	0.000094485592701104	672.482147145567637381
0.000094483412887106	0.000094483412887106	0.000367192871168300	0.000367192871168300	0.000367192871168300	0.000094483412887106	672.492169055216322704
0.000094481228067772	0.000094481228067772	0.000367161804371700	0.000367161804371700	0.000367161804371700	0.000094481228067772	672.502190964864894340
0.000094479046107684	0.000094479046107684	0.000367130726384800	0.000367130726384800	0.000367130726384800	0.000094479046107684	672.512212874513579663
0.000094476884820687	0.000094476884820687	0.000367099655184300	0.000367099655184300	0.000367099655184300	0.000094476884820687	672.522234784162264987
0.000094474698066893	0.000094474698066893	0.000367068585408100	0.000367068585408100	0.000367068585408100	0.000094474698066893	672.532256693810836623
0.000094472518878645	0.000094472518878645	0.000367037500726800	0.000367037500726800	0.000367037500726800	0.000094472518878645	672.542278603459521946
0.000094470349261474	0.000094470349261474	0.000367006414594500	0.000367006414594500	0.000367006414594500	0.000094470349261474	672.552300513108207269
0.000094468178823811	0.000094468178823811	0.000366975329636900	0.000366975329636900	0.000366975329636900	0.000094468178823811	672.562322422756778906
0.000094466008411863	0.000094466008411863	0.000366944242835700	0.000366944242835700	0.000366944242835700	0.000094466008411863	672.572344332405464229
0.000094463838657456	0.000094463838657456	0.000366913156537500	0.000366913156537500	0.000366913156537500	0.000094463838657456	672.582366242054149552
0.000094461657720106	0.000094461657720106	0.000366882064075900	0.000366882064075900	0.000366882064075900	0.000094461657720106	672.592388151702721188
0.000094459480335173	0.000094459480335173	0.000366850958470100	0.000366850958470100	0.000366850958470100	0.000094459480335173	672.602410061351406512
0.000094457314767182	0.000094457314767182	0.000366819850385800	0.000366819850385800	0.000366819850385800	0.000094457314767182	672.612431971000091835
0.000094455143319425	0.000094455143319425	0.000366788739438800	0.000366788739438800	0.000366788739438800	0.000094455143319425	672.622453880648663471
0.000094452980586687	0.000094452980586687	0.000366757623153500	0.000366757623153500	0.000366757623153500	0.000094452980586687	672.632475790297348794
0.000094450819476109	0.000094450819476109	0.000366726507398600	0.000366726507398600	0.000366726507398600	0.000094450819476109	672.642497699946034118
0.000094448655325640	0.000094448655325640	0.000366695385919100	0.000366695385919100	0.000366695385919100	0.000094448655325640	672.652519609594605754
0.000094446507596940	0.000094446507596940	0.000366664270801500	0.000366664270801500	0.000366664270801500	0.000094446507596940	672.662541519243291077
0.000094444331294887	0.000094444331294887	0.000366633154863700	0.000366633154863700	0.000366633154863700	0.000094444331294887	672.672563428891976400
0.000094442161731191	0.000094442161731191	0.000366602022712400	0.000366602022712400	0.000366602022712400	0.000094442161731191	672.682585338540548037
0.000094439995415081	0.000094439995415081	0.000366570885272100	0.000366570885272100	0.000366570885272100	0.000094439995415081	672.692607248189233360
0.000094437827799702	0.000094437827799702	0.000366539740189600	0.000366539740189600	0.000366539740189600	0.000094437827799702	672.702629157837918683
0.000094435668788841	0.000094435668788841	0.000366508590664900	0.000366508590664900	0.000366508590664900	0.000094435668788841	672.712651067486604006
0.000094433502504952	0.000094433502504952	0.000366477430740200	0.000366477430740200	0.000366477430740200	0.000094433502504952	672.722672977135175643
0.000094431365321386	0.000094431365321386	0.000366446274488000	0.000366446274488000	0.000366446274488000	0.000094431365321386	672.732694886783860966
0.000094429201473285	0.000094429201473285	0.000366415122568400	0.000366415122568400	0.000366415122568400	0.000094429201473285	672.742716796432546289
0.000094427044042160	0.000094427044042160	0.000366383958944900	0.000366383958944900	0.000366383958944900	0.000094427044042160	672.752738706081117925
0.000094424880408652	0.000094424880408652	0.000366352784618400	0.000366352784618400	0.000366352784618400	0.000094424880408652	672.762760615729803249
0.000094422735444609	0.000094422735444609	0.000366321606417700	0.000366321606417700	0.000366321606417700	0.000094422735444609	672.772782525378488572
0.000094420581128662	0.000094420581128662	0.000366290429654500	0.000366290429654500	0.000366290429654500	0.000094420581128662	672.782804435027060208
0.000094418426956494	0.000094418426956494	0.000366259244491000	0.000366259244491000	0.000366259244491000	0.000094418426956494	672.792826344675745531
0.000094416274882568	0.000094416274882568	0.000366228052286000	0.000366228052286000	0.000366228052286000	0.000094416274882568	672.802848254324430854
0.000094414126379854	0.000094414126379854	0.000366196854597100	0.000366196854597100	0.000366196854597100	0.000094414126379854	672.812870163973002491
0.000094411981521761	0.000094411981521761	0.000366165654143100	0.000366165654143100	0.000366165654143100	0.000094411981521761	672.822892073621687814
