beta_para	beta_perp	delta_para	delta_perp	delta	beta	energy
0.00021910853157719999	0.00021910853157719999	-0.00507124807079664	-0.00507124807079664	-0.00507124807079664	0.00021910853157719999	269.25
0.00021912313775627998	0.00021912313775627998	-0.00507418809411384	-0.00507418809411384	-0.00507418809411384	0.00021912313775627998	269.2592923605613
0.00021916567104936	0.00021916567104936	-0.00507711235625784	-0.00507711235625784	-0.00507711235625784	0.00021916567104936	269.26858472112247
0.00021920773097748	0.00021920773097748	-0.0050800204328562	-0.0050800204328562	-0.0050800204328562	0.00021920773097748	269.2778770816838
0.00021924951141852	0.00021924951141852	-0.00508292308942992	-0.00508292308942992	-0.00508292308942992	0.00021924951141852	269.28716944224504
0.00021929196476388	0.00021929196476388	-0.00508582297641252	-0.00508582297641252	-0.00508582297641252	0.00021929196476388	269.29646180280633
0.00021933450014184	0.00021933450014184	-0.005088721301007	-0.005088721301007	-0.005088721301007	0.00021933450014184	269.3057541633676
0.00021937708570944	0.00021937708570944	-0.0050916192842925595	-0.0050916192842925595	-0.0050916192842925595	0.00021937708570944	269.31504652392886
0.00021941949803412	0.00021941949803412	-0.005094518112841199	-0.005094518112841199	-0.005094518112841199	0.00021941949803412	269.32433888449015
0.00021946214535996	0.00021946214535996	-0.0050974189903848005	-0.0050974189903848005	-0.0050974189903848005	0.00021946214535996	269.3336312450514
0.00021950454372876	0.00021950454372876	-0.005100325627101239	-0.005100325627101239	-0.005100325627101239	0.00021950454372876	269.34292360561267
0.00021955807657152	0.00021955807657152	-0.00510323507795244	-0.00510323507795244	-0.00510323507795244	0.00021955807657152	269.352215966174
0.0002196171037872	0.0002196171037872	-0.00510614015830152	-0.00510614015830152	-0.00510614015830152	0.0002196171037872	269.3615083267352
0.00021967590264143999	0.00021967590264143999	-0.0051090419758788	-0.0051090419758788	-0.0051090419758788	0.00021967590264143999	269.3708006872965
0.00021973537587264	0.00021973537587264	-0.00511194267457464	-0.00511194267457464	-0.00511194267457464	0.00021973537587264	269.38009304785766
0.00021979495118616	0.00021979495118616	-0.00511484257446216	-0.00511484257446216	-0.00511484257446216	0.00021979495118616	269.389385408419
0.0002198543479242	0.0002198543479242	-0.00511774234934604	-0.00511774234934604	-0.00511774234934604	0.0002198543479242	269.39867776898024
0.00021991375283628	0.00021991375283628	-0.00512064249203556	-0.00512064249203556	-0.00512064249203556	0.00021991375283628	269.4079701295415
0.00021997330533671998	0.00021997330533671998	-0.0051235430946474	-0.0051235430946474	-0.0051235430946474	0.00021997330533671998	269.4172624901028
0.000220032549873	0.000220032549873	-0.0051264445589029204	-0.0051264445589029204	-0.0051264445589029204	0.000220032549873	269.42655485066405
0.00022009224286116	0.00022009224286116	-0.00512934706259448	-0.00512934706259448	-0.00512934706259448	0.00022009224286116	269.43584721122534
0.00022015202274695998	0.00022015202274695998	-0.00513225047992164	-0.00513225047992164	-0.00513225047992164	0.00022015202274695998	269.44513957178657
0.00022021196044248	0.00022021196044248	-0.00513515491650144	-0.00513515491650144	-0.00513515491650144	0.00022021196044248	269.45443193234786
0.00022027173495131998	0.00022027173495131998	-0.0051380606475996	-0.0051380606475996	-0.0051380606475996	0.00022027173495131998	269.46372429290915
0.00022033192537176	0.00022033192537176	-0.00514096773543828	-0.00514096773543828	-0.00514096773543828	0.00022033192537176	269.4730166534704
0.00022039215023508	0.00022039215023508	-0.005143876058412	-0.005143876058412	-0.005143876058412	0.00022039215023508	269.48230901403167
0.00022045232337899998	0.00022045232337899998	-0.0051467859800046	-0.0051467859800046	-0.0051467859800046	0.00022045232337899998	269.4916013745929
0.00022051310264688	0.00022051310264688	-0.0051496973482224	-0.0051496973482224	-0.0051496973482224	0.00022051310264688	269.50089373515414
0.00022057383677615998	0.00022057383677615998	-0.005152609929230279	-0.005152609929230279	-0.005152609929230279	0.00022057383677615998	269.5101860957155
0.00022063422493151999	0.00022063422493151999	-0.00515552432748396	-0.00515552432748396	-0.00515552432748396	0.00022063422493151999	269.5194784562767
0.00022069531765704	0.00022069531765704	-0.00515844050024784	-0.00515844050024784	-0.00515844050024784	0.00022069531765704	269.528770816838
0.00022075654161216	0.00022075654161216	-0.0051613580264442	-0.0051613580264442	-0.0051613580264442	0.00022075654161216	269.53806317739924
0.00022081766022288	0.00022081766022288	-0.005164277088696719	-0.005164277088696719	-0.005164277088696719	0.00022081766022288	269.54735553796047
0.00022087848014256	0.00022087848014256	-0.005167198201308719	-0.005167198201308719	-0.005167198201308719	0.00022087848014256	269.5566478985218
0.00022094014084416	0.00022094014084416	-0.00517012104817536	-0.00517012104817536	-0.00517012104817536	0.00022094014084416	269.56594025908305
0.00022100125093955998	0.00022100125093955998	-0.0051730456052994	-0.0051730456052994	-0.0051730456052994	0.00022100125093955998	269.57523261964434
0.00022106279101055998	0.00022106279101055998	-0.0051759722833329596	-0.0051759722833329596	-0.0051759722833329596	0.00022106279101055998	269.5845249802056
0.00022112475948312	0.00022112475948312	-0.005178900495109919	-0.005178900495109919	-0.005178900495109919	0.00022112475948312	269.59381734076686
0.00022118609529912	0.00022118609529912	-0.005181830609455919	-0.005181830609455919	-0.005181830609455919	0.00022118609529912	269.6031097013281
0.0002212478781138	0.0002212478781138	-0.00518476290950352	-0.00518476290950352	-0.00518476290950352	0.0002212478781138	269.6124020618894
0.00022130970010584	0.00022130970010584	-0.0051876970903532394	-0.0051876970903532394	-0.0051876970903532394	0.00022130970010584	269.6216944224507
0.00022137139567632	0.00022137139567632	-0.00519063355834008	-0.00519063355834008	-0.00519063355834008	0.00022137139567632	269.6309867830119
0.00022143393881387998	0.00022143393881387998	-0.0051935720805726	-0.0051935720805726	-0.0051935720805726	0.00022143393881387998	269.6402791435732
0.00022149673526748	0.00022149673526748	-0.0051965118234891606	-0.0051965118234891606	-0.0051965118234891606	0.00022149673526748	269.6495715041344
0.00022155779338139999	0.00022155779338139999	-0.00519945435556932	-0.00519945435556932	-0.00519945435556932	0.00022155779338139999	269.65886386469566
0.00022162147258608	0.00022162147258608	-0.0052023991019329195	-0.0052023991019329195	-0.0052023991019329195	0.00022162147258608	269.668156225257
0.00022168397754299997	0.00022168397754299997	-0.00520534484005776	-0.00520534484005776	-0.00520534484005776	0.00022168397754299997	269.67744858581824
0.00022174549530936	0.00022174549530936	-0.00520829364712128	-0.00520829364712128	-0.00520829364712128	0.00022174549530936	269.6867409463796
0.00022180866628236	0.00022180866628236	-0.0052112450733174	-0.0052112450733174	-0.0052112450733174	0.00022180866628236	269.6960333069408
0.00022187197703844	0.00022187197703844	-0.00521419796723124	-0.00521419796723124	-0.00521419796723124	0.00022187197703844	269.70532566750205
0.00022193490681312	0.00022193490681312	-0.005217152806336319	-0.005217152806336319	-0.005217152806336319	0.00022193490681312	269.71461802806334
0.00022199746646387998	0.00022199746646387998	-0.0052201102844436	-0.0052201102844436	-0.0052201102844436	0.00022199746646387998	269.7239103886246
0.00022206083450172	0.00022206083450172	-0.00522307015407888	-0.00522307015407888	-0.00522307015407888	0.00022206083450172	269.73320274918586
0.00022212402254519998	0.00022212402254519998	-0.0052260322302798	-0.0052260322302798	-0.0052260322302798	0.00022212402254519998	269.7424951097471
0.00022218783992688	0.00022218783992688	-0.0052289965255884	-0.0052289965255884	-0.0052289965255884	0.00022218783992688	269.7517874703084
0.00022225160743091999	0.00022225160743091999	-0.0052319627489958	-0.0052319627489958	-0.0052319627489958	0.00022225160743091999	269.7610798308697
0.00022231510633751998	0.00022231510633751998	-0.005234931330601199	-0.005234931330601199	-0.005234931330601199	0.00022231510633751998	269.77037219143085
0.00022237883541107999	0.00022237883541107999	-0.00523790243830212	-0.00523790243830212	-0.00523790243830212	0.00022237883541107999	269.77966455199214
0.00022244293973484002	0.00022244293973484002	-0.005240875712909279	-0.005240875712909279	-0.005240875712909279	0.00022244293973484002	269.78895691255343
0.00022250672816579998	0.00022250672816579998	-0.00524385130591728	-0.00524385130591728	-0.00524385130591728	0.00022250672816579998	269.7982492731147
0.00022257077755896	0.00022257077755896	-0.005246829500699039	-0.005246829500699039	-0.005246829500699039	0.00022257077755896	269.807541633676
0.00022263531670584	0.00022263531670584	-0.0052498098202632	-0.0052498098202632	-0.0052498098202632	0.00022263531670584	269.81683399423724
0.00022269937671515997	0.00022269937671515997	-0.005252792380654919	-0.005252792380654919	-0.005252792380654919	0.00022269937671515997	269.82612635479853
0.00022276336205172	0.00022276336205172	-0.0052557778113847195	-0.0052557778113847195	-0.0052557778113847195	0.00022276336205172	269.83541871535976
0.00022282806708636	0.00022282806708636	-0.00525876578170536	-0.00525876578170536	-0.00525876578170536	0.00022282806708636	269.84471107592105
0.00022289271835296	0.00022289271835296	-0.005261756232172199	-0.005261756232172199	-0.005261756232172199	0.00022289271835296	269.85400343648234
0.00022295841715187998	0.00022295841715187998	-0.0052647486982624805	-0.0052647486982624805	-0.0052647486982624805	0.00022295841715187998	269.8632957970436
0.00022302321615815998	0.00022302321615815998	-0.005267743133397841	-0.005267743133397841	-0.005267743133397841	0.00022302321615815998	269.87258815760487
0.00022308774512003998	0.00022308774512003998	-0.00527074055821752	-0.00527074055821752	-0.00527074055821752	0.00022308774512003998	269.8818805181661
0.00022315283398488	0.00022315283398488	-0.0052737407809576795	-0.0052737407809576795	-0.0052737407809576795	0.00022315283398488	269.89117287872733
0.00022321817606183998	0.00022321817606183998	-0.005276743468505279	-0.005276743468505279	-0.005276743468505279	0.00022321817606183998	269.9004652392887
0.00022328386784135998	0.00022328386784135998	-0.00527974848433608	-0.00527974848433608	-0.00527974848433608	0.00022328386784135998	269.9097575998499
0.00022334940925979998	0.00022334940925979998	-0.005282755910193599	-0.005282755910193599	-0.005282755910193599	0.00022334940925979998	269.9190499604112
0.00022341513083807998	0.00022341513083807998	-0.0052857658508376005	-0.0052857658508376005	-0.0052857658508376005	0.00022341513083807998	269.92834232097243
0.00022348063586856	0.00022348063586856	-0.00528877848131976	-0.00528877848131976	-0.00528877848131976	0.00022348063586856	269.93763468153367
0.00022354665779172	0.00022354665779172	-0.00529179372087012	-0.00529179372087012	-0.00529179372087012	0.00022354665779172	269.9469270420949
0.0002236124779434	0.0002236124779434	-0.0052948115007066	-0.0052948115007066	-0.0052948115007066	0.0002236124779434	269.95621940265625
0.00022367852987808	0.00022367852987808	-0.00529783209576396	-0.00529783209576396	-0.00529783209576396	0.00022367852987808	269.96551176321753
0.00022374508076928	0.00022374508076928	-0.00530085508544052	-0.00530085508544052	-0.00530085508544052	0.00022374508076928	269.9748041237788
0.00022381116198695998	0.00022381116198695998	-0.00530388068868588	-0.00530388068868588	-0.00530388068868588	0.00022381116198695998	269.98409648434006
0.00022387775195268	0.00022387775195268	-0.005306909025763799	-0.005306909025763799	-0.005306909025763799	0.00022387775195268	269.9933888449013
0.00022394406165672	0.00022394406165672	-0.0053099400978462	-0.0053099400978462	-0.0053099400978462	0.00022394406165672	270.0026812054626
0.00022401100540691998	0.00022401100540691998	-0.0053129738294061596	-0.0053129738294061596	-0.0053129738294061596	0.00022401100540691998	270.0119735660238
0.00022407754957236	0.00022407754957236	-0.00531601020054612	-0.00531601020054612	-0.00531601020054612	0.00022407754957236	270.0212659265851
0.00022414430306556	0.00022414430306556	-0.005319049761473159	-0.005319049761473159	-0.005319049761473159	0.00022414430306556	270.0305582871464
0.0002242121439264	0.0002242121439264	-0.005322091752396239	-0.005322091752396239	-0.005322091752396239	0.0002242121439264	270.0398506477076
0.0002242794900894	0.0002242794900894	-0.0053251359347034006	-0.0053251359347034006	-0.0053251359347034006	0.0002242794900894	270.04914300826886
0.00022434658107539998	0.00022434658107539998	-0.005328182968935	-0.005328182968935	-0.005328182968935	0.00022434658107539998	270.0584353688302
0.00022441342304171998	0.00022441342304171998	-0.00533123331810528	-0.00533123331810528	-0.00533123331810528	0.00022441342304171998	270.06772772939144
0.00022448126498891997	0.00022448126498891997	-0.00533428663430784	-0.00533428663430784	-0.00533428663430784	0.00022448126498891997	270.0770200899527
0.00022454919275795998	0.00022454919275795998	-0.00533734235366988	-0.00533734235366988	-0.00533734235366988	0.00022454919275795998	270.086312450514
0.00022461693881663998	0.00022461693881663998	-0.00534040083822996	-0.00534040083822996	-0.00534040083822996	0.00022461693881663998	270.09560481107525
0.00022468472549603999	0.00022468472549603999	-0.0053434623231244805	-0.0053434623231244805	-0.0053434623231244805	0.00022468472549603999	270.10489717163654
0.00022475267420267998	0.00022475267420267998	-0.00534652682394168	-0.00534652682394168	-0.00534652682394168	0.00022475267420267998	270.11418953219777
0.00022482092811647997	0.00022482092811647997	-0.00534959422578996	-0.00534959422578996	-0.00534959422578996	0.00022482092811647997	270.12348189275906
0.00022488932004864	0.00022488932004864	-0.00535266440952732	-0.00535266440952732	-0.00535266440952732	0.00022488932004864	270.1327742533203
0.00022495759615212	0.00022495759615212	-0.00535573757921748	-0.00535573757921748	-0.00535573757921748	0.00022495759615212	270.1420666138816
0.00022502607476183997	0.00022502607476183997	-0.005358813926949959	-0.005358813926949959	-0.005358813926949959	0.00022502607476183997	270.15135897444287
0.00022509506372988	0.00022509506372988	-0.005361893116637761	-0.005361893116637761	-0.005361893116637761	0.00022509506372988	270.1606513350041
0.00022516388312051998	0.00022516388312051998	-0.00536497504970196	-0.00536497504970196	-0.00536497504970196	0.00022516388312051998	270.16994369556534
0.00022523243214935999	0.00022523243214935999	-0.005368060190145839	-0.005368060190145839	-0.005368060190145839	0.00022523243214935999	270.1792360561266
0.00022530108801936	0.00022530108801936	-0.00537114885438516	-0.00537114885438516	-0.00537114885438516	0.00022530108801936	270.1885284166879
0.00022537054093212	0.00022537054093212	-0.0053742405314736	-0.0053742405314736	-0.0053742405314736	0.00022537054093212	270.19782077724915
0.00022543950908867998	0.00022543950908867998	-0.005377335338182201	-0.005377335338182201	-0.005377335338182201	0.00022543950908867998	270.20711313781044
0.00022550914091676	0.00022550914091676	-0.005380433474370719	-0.005380433474370719	-0.005380433474370719	0.00022550914091676	270.21640549837167
0.0002255787644268	0.0002255787644268	-0.00538353463232808	-0.00538353463232808	-0.00538353463232808	0.0002255787644268	270.22569785893296
0.00022564836704724	0.00022564836704724	-0.00538663912325712	-0.00538663912325712	-0.00538663912325712	0.00022564836704724	270.23499021949425
0.00022571815872264	0.00022571815872264	-0.00538974697267176	-0.00538974697267176	-0.00538974697267176	0.00022571815872264	270.2442825800555
0.00022578778537379998	0.00022578778537379998	-0.0053928584952694794	-0.0053928584952694794	-0.0053928584952694794	0.00022578778537379998	270.2535749406168
0.00022585842905435997	0.00022585842905435997	-0.0053959732067856	-0.0053959732067856	-0.0053959732067856	0.00022585842905435997	270.26286730117806
0.00022592795414976	0.00022592795414976	-0.0053990915052703195	-0.0053990915052703195	-0.0053990915052703195	0.00022592795414976	270.2721596617393
0.00022599863825687998	0.00022599863825687998	-0.005402213558774281	-0.005402213558774281	-0.005402213558774281	0.00022599863825687998	270.2814520223006
0.00022606842640272	0.00022606842640272	-0.00540533932358352	-0.00540533932358352	-0.00540533932358352	0.00022606842640272	270.2907443828618
0.00022613883837491997	0.00022613883837491997	-0.00540846946716804	-0.00540846946716804	-0.00540846946716804	0.00022613883837491997	270.3000367434231
0.000226209693879	0.000226209693879	-0.00541160345947968	-0.00541160345947968	-0.00541160345947968	0.000226209693879	270.3093291039844
0.00022628025457715998	0.00022628025457715998	-0.00541474181850564	-0.00541474181850564	-0.00541474181850564	0.00022628025457715998	270.3186214645456
0.00022635171924767998	0.00022635171924767998	-0.00541788455444844	-0.00541788455444844	-0.00541788455444844	0.00022635171924767998	270.32791382510686
0.0002264224958034	0.0002264224958034	-0.00542103218276352	-0.00542103218276352	-0.00542103218276352	0.0002264224958034	270.3372061856681
0.00022649449615547997	0.00022649449615547997	-0.00542418501411984	-0.00542418501411984	-0.00542418501411984	0.00022649449615547997	270.34649854622944
0.00022656567679703998	0.00022656567679703998	-0.005427343512580439	-0.005427343512580439	-0.005427343512580439	0.00022656567679703998	270.3557909067908
0.00022663651125336	0.00022663651125336	-0.00543051028550232	-0.00543051028550232	-0.00543051028550232	0.00022663651125336	270.365083267352
0.00022670809487928	0.00022670809487928	-0.0054336905922575994	-0.0054336905922575994	-0.0054336905922575994	0.00022670809487928	270.37437562791325
0.00022679501899043998	0.00022679501899043998	-0.005436883562457	-0.005436883562457	-0.005436883562457	0.00022679501899043998	270.3836679884745
0.00022690472197691997	0.00022690472197691997	-0.00544007284071408	-0.00544007284071408	-0.00544007284071408	0.00022690472197691997	270.3929603490358
0.00022701528217271998	0.00022701528217271998	-0.00544325240875248	-0.00544325240875248	-0.00544325240875248	0.00022701528217271998	270.40225270959706
0.00022712639922912	0.00022712639922912	-0.0054464287649094	-0.0054464287649094	-0.0054464287649094	0.00022712639922912	270.4115450701583
0.0002272371989766	0.0002272371989766	-0.00544960395804708	-0.00544960395804708	-0.00544960395804708	0.0002272371989766	270.4208374307196
0.00022734865381872	0.00022734865381872	-0.00545277863878164	-0.00545277863878164	-0.00545277863878164	0.00022734865381872	270.4301297912808
0.00022745872025256	0.00022745872025256	-0.00545595391014156	-0.00545595391014156	-0.00545595391014156	0.00022745872025256	270.43942215184205
0.00022756944619968	0.00022756944619968	-0.00545913097253064	-0.00545913097253064	-0.00545913097253064	0.00022756944619968	270.44871451240334
0.00022768120936176	0.00022768120936176	-0.005462309110254239	-0.005462309110254239	-0.005462309110254239	0.00022768120936176	270.45800687296463
0.00022779328738871998	0.00022779328738871998	-0.00546548802033288	-0.00546548802033288	-0.00546548802033288	0.00022779328738871998	270.4672992335259
0.00022790509179444	0.00022790509179444	-0.00546866823231696	-0.00546866823231696	-0.00546866823231696	0.00022790509179444	270.47659159408715
0.00022801704259824	0.00022801704259824	-0.005471850193506001	-0.005471850193506001	-0.005471850193506001	0.00022801704259824	270.48588395464844
0.00022812915449616	0.00022812915449616	-0.00547503411563628	-0.00547503411563628	-0.00547503411563628	0.00022812915449616	270.4951763152097
0.00022824225550356002	0.00022824225550356002	-0.0054782195088932395	-0.0054782195088932395	-0.0054782195088932395	0.00022824225550356002	270.50446867577097
