beta_para	beta_perp	delta_para	delta_perp	delta	beta	energy
0.00021910853157719999	0.00021910853157719999	-0.00508816335451908	-0.00506279042893536	-0.00507124807079664	0.00021910853157719999	269.25
0.00021912662320643997	0.00021912139503108	-0.005091334362344519	-0.00506561495999844	-0.00507418809411384	0.00021912313775627998	269.2592923605613
0.00021917952816684	0.00021915874249056	-0.00509448875571792	-0.0050684241565278	-0.00507711235625784	0.00021916567104936	269.2685847211225
0.00021923237848836	0.00021919540722204002	-0.005097623687049359	-0.00507121880575968	-0.0050800204328562	0.00021920773097748	269.2778770816838
0.00021928417728744	0.00021923217848412	-0.00510075238274844	-0.0050740084427706	-0.00508292308942992	0.00021924951141852	269.28716944224504
0.00021933742799436	0.00021926923314863998	-0.0051038779444329595	-0.00507679549240236	-0.00508582297641252	0.00021929196476388	269.29646180280633
0.000219389932605	0.0002193067839102	-0.00510700182726048	-0.0050795810378802	-0.005088721301007	0.00021933450014184	269.3057541633676
0.00021944279850408	0.00021934422931212	-0.00511012605886728	-0.005082365897005199	-0.0050916192842925595	0.00021937708570944	269.31504652392886
0.00021949622247767998	0.0002193811358124	-0.00511325127193464	-0.00508515153329448	-0.005094518112841199	0.00021941949803412	269.32433888449015
0.0002195495034672	0.00021941846630640002	-0.005116378747491599	-0.0050879391118314	-0.0050974189903848005	0.00021946214535996	269.3336312450514
0.00021960187425408	0.00021945587846604	-0.00511951417149528	-0.00509073135490416	-0.005100325627101239	0.00021950454372876	269.34292360561267
0.00021966964177847997	0.00021950229396804001	-0.0051226534061454	-0.00509352591385596	-0.00510323507795244	0.00021955807657152	269.352215966174
0.00021974445990696	0.00021955342572731998	-0.00512578643467248	-0.00509631702011592	-0.00510614015830152	0.0002196171037872	269.3615083267352
0.00021981847108895998	0.00021960461841756	-0.005128915321790759	-0.005099105302922759	-0.0051090419758788	0.00021967590264143999	269.3708006872965
0.00021989408194092	0.00021965602283843997	-0.005132042561249881	-0.00510189273123696	-0.00511194267457464	0.00021973537587264	269.3800930478577
0.00021996898983096	0.00021970793186376	-0.00513516869708676	-0.0051046795131497995	-0.00511484257446216	0.00021979495118616	269.389385408419
0.0002200446099546	0.000219759216909	-0.005138294531416439	-0.00510746625831084	-0.00511774234934604	0.0002198543479242	269.39867776898024
0.0002201194648896	0.00021981089680967998	-0.0051414205707094795	-0.0051102534526985995	-0.00512064249203556	0.00021991375283628	269.4079701295415
0.00022019509434371997	0.00021986241083316	-0.005144547240021839	-0.0051130410219602405	-0.0051235430946474	0.00021997330533671998	269.4172624901028
0.00022027052021327998	0.0002199135647028	-0.005147674248786841	-0.0051158297139609595	-0.0051264445589029204	0.000220032549873	269.42655485066405
0.00022034528013984	0.00021996572422175998	-0.00515080271273748	-0.00511861923752304	-0.00512934706259448	0.00022009224286116	269.43584721122534
0.00022042130714399998	0.00022001738054844	-0.00515393246117832	-0.00512140948929336	-0.00513225047992164	0.00022015202274695998	269.44513957178657
0.00022049699612952	0.00022006944259896	-0.0051570632622238806	-0.00512420074364016	-0.00513515491650144	0.00022021196044248	269.45443193234786
0.00022057354511856	0.00022012082986764	-0.005160195169900199	-0.00512699338644924	-0.0051380606475996	0.00022027173495131998	269.46372429290915
0.00022064943810083998	0.00022017316900727998	-0.00516332823586752	-0.00512978748522372	-0.00514096773543828	0.00022033192537176	269.4730166534704
0.00022072542106031998	0.00022022551482251998	-0.00516646321103904	-0.00513258248209848	-0.005143876058412	0.00022039215023508	269.48230901403167
0.00022080191155823999	0.00022027752928943997	-0.005169599882894159	-0.005135379028559759	-0.0051467859800046	0.00022045232337899998	269.4916013745929
0.00022087876866215997	0.00022033026963924	-0.005172737788507799	-0.00513817712807964	-0.0051496973482224	0.00022051310264688	269.5008937351542
0.00022095473816555997	0.00022038338608139997	-0.00517587762028848	-0.00514097608370124	-0.005152609929230279	0.00022057383677615998	269.5101860957155
0.00022103131418208	0.00022043568030624	-0.00517902011283372	-0.005143776434809199	-0.00515552432748396	0.00022063422493151999	269.5194784562767
0.00022110951243828	0.00022048822026636	-0.00518216397908628	-0.005146578760828679	-0.00515844050024784	0.00022069531765704	269.528770816838
0.00022118722094136	0.00022054120194768	-0.00518530871509272	-0.00514938268211988	-0.0051613580264442	0.00022075654161216	269.53806317739924
0.00022126402236311997	0.00022059447915275999	-0.0051884556898066795	-0.00515218778814168	-0.005164277088696719	0.00022081766022288	269.5473555379605
0.00022134169467575998	0.00022064687287595998	-0.00519160480902768	-0.00515499489744936	-0.005167198201308719	0.00022087848014256	269.5566478985218
0.00022141872673667998	0.00022070084789795998	-0.0051947558528116795	-0.0051578036458572	-0.00517012104817536	0.00022094014084416	269.56594025908305
0.00022149552763007997	0.00022075411259423998	-0.00519791010697476	-0.00516061335446184	-0.0051730456052994	0.00022100125093955998	269.57523261964434
0.00022157494700592	0.00022080671301287998	-0.00520106611138572	-0.0051634253693065195	-0.0051759722833329596	0.00022106279101055998	269.5845249802056
0.00022165334545776	0.0002208604664958	-0.005204222826189119	-0.005166239329570319	-0.005178900495109919	0.00022112475948312	269.59381734076686
0.00022173027049931997	0.00022091400769896	-0.00520738260890064	-0.00516905460973356	-0.005181830609455919	0.00022118609529912	269.6031097013281
0.0002218091107698	0.0002209672617858	-0.0052105451048692795	-0.005171871811820639	-0.00518476290950352	0.0002212478781138	269.6124020618894
0.0002218877314338	0.0002210206844418	-0.005213709142482	-0.0051746910642887995	-0.0051876970903532394	0.00022130970010584	269.6216944224507
0.00022196602230216	0.00022107408236328	-0.005216875454886839	-0.00517751261006664	-0.00519063355834008	0.00022137139567632	269.6309867830119
0.00022204393155287998	0.00022112894244431997	-0.00522004503080964	-0.0051803356054540796	-0.0051935720805726	0.00022143393881387998	269.6402791435732
0.00022212452972628	0.00022118283803807998	-0.005223216091199279	-0.00518315968963404	-0.0051965118234891606	0.00022149673526748	269.6495715041344
0.00022220195765928	0.00022123571124239998	-0.0052263895314846	-0.00518598676761168	-0.00519945435556932	0.00022155779338139999	269.6588638646957
0.00022228247646012	0.00022129097064911996	-0.005229565622637601	-0.00518881584158052	-0.0052023991019329195	0.00022162147258608	269.668156225257
0.00022236092999976	0.00022134550131467997	-0.00523274337832632	-0.00519164557092348	-0.00520534484005776	0.00022168397754299997	269.67744858581824
0.00022243969334784	0.00022139839629011998	-0.005235924655671	-0.0051944781428463595	-0.00520829364712128	0.00022174549530936	269.6867409463796
0.00022251956029943997	0.00022145321927376	-0.00523910850272532	-0.00519731335861356	-0.0052112450733174	0.00022180866628236	269.6960333069408
0.00022259975593271999	0.00022150808759124001	-0.00524229424981812	-0.005200149825937799	-0.00521419796723124	0.00022187197703844	269.70532566750205
0.00022267961362356	0.00022156255340796	-0.005245482146881799	-0.005202988136063519	-0.005217152806336319	0.00022193490681312	269.71461802806334
0.00022275895539924	0.0002216167219962	-0.0052486730330208	-0.005205828910155	-0.0052201102844436	0.00022199746646387998	269.7239103886246
0.00022283944782564	0.00022167152783975996	-0.00525186623636436	-0.0052086721129362005	-0.00522307015407888	0.00022206083450172	269.73320274918586
0.0002229179165574	0.00022172707553904	-0.0052550629384507195	-0.0052115168761944	-0.0052260322302798	0.00022212402254519998	269.7424951097471
0.00022299983190348	0.00022178184393852	-0.00525826264645512	-0.00521436346515516	-0.0052289965255884	0.00022218783992688	269.7517874703084
0.00022308113115492001	0.00022183684556891997	-0.00526146358952808	-0.00521721232872972	-0.0052319627489958	0.00022225160743091999	269.7610798308697
0.00022316235945443998	0.00022189147977899997	-0.00526466676209172	-0.005220063614855879	-0.005234931330601199	0.00022231510633751998	269.7703721914309
0.00022324283636832	0.00022194683493239998	-0.00526787254389672	-0.00522291738550476	-0.00523790243830212	0.00022237883541107999	269.7796645519922
0.000223323180996	0.00022200281910432	-0.00527108141061552	-0.005225772864056159	-0.005240875712909279	0.00022244293973484002	269.78895691255343
0.00022340335578095998	0.00022205841435816	-0.00527429369240844	-0.00522863011267164	-0.00524385130591728	0.00022250672816579998	269.7982492731147
0.00022348462478399998	0.00022211385394644	-0.00527750929733388	-0.005231489602381679	-0.005246829500699039	0.00022257077755896	269.807541633676
0.00022356755275511998	0.00022216919868132	-0.0052807263571686	-0.00523435155181044	-0.0052498098202632	0.00022263531670584	269.81683399423724
0.00022364784389316	0.00022222514312627997	-0.00528394611154308	-0.005237215515210839	-0.005252792380654919	0.00022269937671515997	269.82612635479853
0.00022372993873524	0.00022228007370996	-0.00528716943655128	-0.00524008199880144	-0.0052557778113847195	0.00022276336205172	269.83541871535976
0.00022381181882555998	0.00022233619121676	-0.00529039515566832	-0.00524295109472388	-0.00525876578170536	0.00022282806708636	269.84471107592105
0.00022389389936411998	0.00022239212784732	-0.00529362401936304	-0.00524582233857672	-0.005261756232172199	0.00022289271835296	269.85400343648234
0.00022397750641596	0.00022244887251984	-0.0052968547072974	-0.005248695693745079	-0.0052647486982624805	0.00022295841715187998	269.8632957970436
0.00022405868320199998	0.00022250548263624	-0.005300087989506	-0.00525157070534376	-0.005267743133397841	0.00022302321615815998	269.87258815760487
0.00022414065285288	0.00022256129125355998	-0.00530332525266792	-0.005254448210992319	-0.00527074055821752	0.00022308774512003998	269.8818805181661
0.00022422315282312	0.00022261767456575998	-0.00530656562866764	-0.0052573283571026395	-0.0052737407809576795	0.00022315283398488	269.8911728787274
0.00022430666435628	0.00022267393191467997	-0.0053098084565943605	-0.0052602109744608	-0.005276743468505279	0.00022321817606183998	269.9004652392887
0.00022438965565307997	0.00022273097393543998	-0.0053130536889384	-0.0052630958820349205	-0.00527974848433608	0.00022328386784135998	269.9097575998499
0.00022447246428911998	0.0002227878817452	-0.00531630210230112	-0.00526598281413984	-0.005282755910193599	0.00022334940925979998	269.9190499604112
0.00022455560128392	0.00022284489561528	-0.00531955375873944	-0.00526887189688668	-0.0052857658508376005	0.00022341513083807998	269.92834232097243
0.00022463931998952	0.00022290129380796	-0.00532280827385976	-0.00527176358504988	-0.00528877848131976	0.00022348063586856	269.9376346815337
0.00022472317097951998	0.00022295840119776	-0.0053260654103433605	-0.0052746578761334395	-0.00529179372087012	0.00022354665779172	269.94692704209496
0.00022480683454728	0.00022301529964152	-0.0053293254548836795	-0.005277554523618	-0.0052948115007066	0.0002236124779434	269.95621940265625
0.00022489069246907998	0.00022307244858263997	-0.00533258847270516	-0.00528045390729336	-0.00529783209576396	0.00022367852987808	269.96551176321753
0.00022497430086683998	0.00022313047072044	-0.005335854584854799	-0.00528335533573332	-0.00530085508544052	0.00022374508076928	269.9748041237788
0.0002250581656404	0.00022318766016023997	-0.00533912386798752	-0.005286259099035119	-0.00530388068868588	0.00022381116198695998	269.98409648434006
0.00022514171893559998	0.00022324576846128	-0.005342396644416959	-0.00528916521643728	-0.005306909025763799	0.00022387775195268	269.9933888449013
0.00022522627999787997	0.0002233029524862	-0.00534567297869736	-0.00529207365742068	-0.0053099400978462	0.00022394406165672	270.0026812054626
0.00022531211299644	0.00022336045161215997	-0.00534895139011572	-0.00529498504905132	-0.0053129738294061596	0.00022401100540691998	270.01197356602387
0.00022539610676975997	0.0002234182709736	-0.0053522327438142	-0.00529789892891208	-0.00531601020054612	0.00022407754957236	270.0212659265851
0.00022548120679452	0.00022347585120107997	-0.00535551785504688	-0.00530081571468624	-0.005319049761473159	0.00022414430306556	270.0305582871464
0.00022556650493496002	0.00022353496342212	-0.00535880573394876	-0.00530373476161992	-0.005322091752396239	0.0002242121439264	270.0398506477076
0.00022565149544015998	0.00022359348741396	-0.0053620969178512804	-0.005306655443129399	-0.0053251359347034006	0.0002242794900894	270.0491430082689
0.00022573727950632	0.00022365123185988	-0.0053653912308218405	-0.0053095788379915205	-0.005328182968935	0.00022434658107539998	270.0584353688302
0.00022582254078431997	0.00022370886417036	-0.00536868879415176	-0.00531250558008204	-0.00533123331810528	0.00022441342304171998	270.06772772939144
0.00022590879856188	0.00022376749820256	-0.00537198957861096	-0.005315435162156401	-0.00533428663430784	0.00022448126498891997	270.0770200899527
0.00022599479948316	0.00022382638939536	-0.00537529312596264	-0.0053183669675234396	-0.00533734235366988	0.00022454919275795998	270.086312450514
0.00022608031545419998	0.0002238852504978	-0.0053786003809422	-0.0053213010668738394	-0.00534040083822996	0.00022461693881663998	270.09560481107525
0.00022616704072176	0.00022394356788311997	-0.00538191098068728	-0.00532423799434296	-0.0053434623231244805	0.00022468472549603999	270.10489717163654
0.00022625361467339998	0.00022400220396731998	-0.005385224161968239	-0.0053271781549284	-0.00534652682394168	0.00022475267420267998	270.11418953219777
0.00022633912862843997	0.00022406182786056	-0.00538854117010752	-0.00533012075363124	-0.00534959422578996	0.00022482092811647997	270.12348189275906
0.00022642595960303998	0.00022412100027143997	-0.005391861877642799	-0.005333065675469519	-0.00535266440952732	0.00022488932004864	270.1327742533203
0.00022651233955764	0.00022418022444923997	-0.00539518583955624	-0.00533601344904816	-0.00535573757921748	0.00022495759615212	270.1420666138816
0.00022659908008331998	0.00022423957210116	-0.0053985138607494	-0.00533896396005036	-0.005358813926949959	0.00022502607476183997	270.15135897444287
0.00022668758951724	0.00022429880083619998	-0.00540184461410796	-0.00534191736790272	-0.005361893116637761	0.00022509506372988	270.1606513350041
0.00022677479456256	0.00022435842739944	-0.0054051779536308	-0.0053448735977376	-0.00536497504970196	0.00022516388312051998	270.1699436955654
0.00022686154403219998	0.00022441787620788	-0.0054085153393902	-0.0053478326155236	-0.005368060190145839	0.00022523243214935999	270.1792360561266
0.00022694857198764001	0.00022447734603515997	-0.00541185687782148	-0.005350794842667	-0.00537114885438516	0.00022530108801936	270.1885284166879
0.00022703639800847997	0.00022453761239399998	-0.00541520189669484	-0.00535375984886304	-0.0053742405314736	0.00022537054093212	270.19782077724915
0.00022712342902067998	0.00022459754912268	-0.005418551130615719	-0.00535672744196544	-0.005377335338182201	0.00022543950908867998	270.20711313781044
0.00022721305915116	0.00022465718179944	-0.00542190363989988	-0.0053596983916060804	-0.005380433474370719	0.00022550914091676	270.2164054983717
0.00022730099122848	0.00022471765102595999	-0.0054252590981420405	-0.005362672399421039	-0.00538353463232808	0.0002255787644268	270.22569785893296
0.00022738952037576	0.00022477779038304	-0.00542861881059432	-0.00536564927958852	-0.00538663912325712	0.00022564836704724	270.23499021949425
0.00022747825826987996	0.00022483810894907997	-0.00543198212778828	-0.00536862939511356	-0.00538974697267176	0.00022571815872264	270.2442825800555
0.00022756657444992	0.0002248983908358	-0.005435349814602119	-0.00537161283560316	-0.0053928584952694794	0.00022578778537379998	270.2535749406168
0.00022765695315263998	0.00022495916700528	-0.005438720698570919	-0.00537459946089288	-0.0053959732067856	0.00022585842905435997	270.26286730117806
0.00022774470372588	0.00022501957936163998	-0.00544209556572204	-0.0053775894750445205	-0.0053990915052703195	0.00022592795414976	270.2721596617393
0.00022783457856636	0.0002250806681022	-0.00544547492010528	-0.0053805828781087195	-0.005402213558774281	0.00022599863825687998	270.2814520223006
0.00022792268612784	0.00022514129654015999	-0.00544885855171608	-0.00538357970951712	-0.00540533932358352	0.00022606842640272	270.2907443828618
0.00022801215347748	0.00022520218082376	-0.00545224757242272	-0.00538658041454076	-0.00540846946716804	0.00022613883837491997	270.3000367434231
0.00022810288452924	0.00022526309855376	-0.005455640325369719	-0.0053895850265346	-0.00541160345947968	0.000226209693879	270.3093291039844
0.00022819251359291998	0.00022532412506928	-0.00545903732580216	-0.005392594064857321	-0.00541474181850564	0.00022628025457715998	270.31862146454563
0.00022828214630988	0.00022538650571651998	-0.00546244000793568	-0.00539560682770476	-0.00541788455444844	0.00022635171924767998	270.3279138251069
0.00022837274283875997	0.00022544737228559998	-0.005465848138532879	-0.00539862420487884	-0.00542103218276352	0.0002264224958034	270.3372061856681
0.00022846342204775998	0.0002255100332094	-0.00546926177802588	-0.0054016466321667594	-0.00542418501411984	0.00022649449615547997	270.34649854622944
0.0002285540881998	0.0002255714710956	-0.00547268201144208	-0.00540467426314968	-0.005427343512580439	0.00022656567679703998	270.3557909067908
0.0002286447413892	0.00022563239618531998	-0.00547611054063672	-0.0054077101579351194	-0.00543051028550232	0.00022663651125336	270.365083267352
0.00022873538159424	0.00022569445152168	-0.005479553106980039	-0.005410759334896441	-0.0054336905922575994	0.00022670809487928	270.37437562791325
0.000228841362561	0.00022577184720516	-0.0054830098439694	-0.0054138204217008	-0.005436883562457	0.00022679501899043998	270.3836679884745
0.00022897224707388	0.00022587095942844	-0.00548646308899188	-0.00541687771657524	-0.00544007284071408	0.00022690472197691997	270.3929603490358
0.00022910331691535998	0.0002259712648014	-0.00548990607590568	-0.00541992557517588	-0.00544325240875248	0.00022701528217271998	270.40225270959706
0.00022923463553867999	0.00022607228107428	-0.00549334620698832	-0.00542297004386988	-0.0054464287649094	0.00022712639922912	270.4115450701583
0.00022936491322943998	0.00022617334185024	-0.00549678636329952	-0.005426012755420919	-0.00544960395804708	0.0002272371989766	270.4208374307196
0.000229497390696	0.00022627428538008	-0.0055002269353278	-0.005429054490508559	-0.00545277863878164	0.00022734865381872	270.4301297912808
0.00022962939778871998	0.0002263733814846	-0.0055036673050592394	-0.0054320972126828395	-0.00545595391014156	0.00022745872025256	270.4394221518421
0.00022976039847708	0.00022647397006092	-0.00550710947162112	-0.0054351417229854	-0.00545913097253064	0.00022756944619968	270.44871451240334
0.00022989265490279997	0.00022657548659136	-0.0055105538007771595	-0.00543818676499272	-0.005462309110254239	0.00022768120936176	270.45800687296463
0.00023002569961031997	0.00022667708127792	-0.00551399923465812	-0.00544123241317032	-0.00546548802033288	0.00022779328738871998	270.4672992335259
0.00023015817906132	0.000226778548161	-0.0055174461711228	-0.00544427926291404	-0.00546866823231696	0.00022790509179444	270.47659159408715
0.00023029042482804	0.0002268803514834	-0.00552089569600368	-0.00544732744225716	-0.005471850193506001	0.00022801704259824	270.48588395464844
0.00023042369958888	0.00022698188194968	-0.0055243475924002805	-0.005450377377254279	-0.00547503411563628	0.00022812915449616	270.4951763152097
0.00023055724674876	0.00022708475988095998	-0.005527801353713281	-0.00545342858648328	-0.0054782195088932395	0.00022824225550356002	270.50446867577097
0.00023069078954088	0.00022718675951447997	-0.0055312571878312795	-0.005456481014480519	-0.00548140640559744	0.00022835476952327998	270.51376103633226
