beta_para	beta_perp	delta_para	delta_perp	delta	beta	energy
0.00011296526463036	0.00011296526463036	0.0005522533949380799	0.0005522533949380799	0.0005522533949380799	0.00011296526463036	661.0
0.0001129616394588	0.0001129616394588	0.00055221759587868	0.00055221759587868	0.00055221759587868	0.0001129616394588	661.0111123458162
0.0001129580701716	0.0001129580701716	0.0005521831888236	0.0005521831888236	0.0005521831888236	0.0001129580701716	661.0222246916325
0.00011295444536051999	0.00011295444536051999	0.0005521493120181599	0.0005521493120181599	0.0005521493120181599	0.00011295444536051999	661.0333370374486
0.00011295084677075999	0.00011295084677075999	0.0005521157556901199	0.0005521157556901199	0.0005521157556901199	0.00011295084677075999	661.0444493832648
0.00011294725196136	0.00011294725196136	0.00055208246656056	0.00055208246656056	0.00055208246656056	0.00011294725196136	661.055561729081
0.00011294362479996	0.00011294362479996	0.00055204937273448	0.00055204937273448	0.00055204937273448	0.00011294362479996	661.0666740748973
0.00011294000074127999	0.00011294000074127999	0.00055201641308592	0.00055201641308592	0.00055201641308592	0.00011294000074127999	661.0777864207134
0.00011293643248140001	0.00011293643248140001	0.00055198361196888	0.00055198361196888	0.00055198361196888	0.00011293643248140001	661.0888987665296
0.00011293280876316	0.00011293280876316	0.0005519509459452	0.0005519509459452	0.0005519509459452	0.00011293280876316	661.1000111123458
0.00011292921121295999	0.00011292921121295999	0.00055191837890652	0.00055191837890652	0.00055191837890652	0.00011292921121295999	661.1111234581621
0.00011292558786372	0.00011292558786372	0.0005518859043552	0.0005518859043552	0.0005518859043552	0.00011292558786372	661.1222358039782
0.00011292199431612	0.00011292199431612	0.00055185351091176	0.00055185351091176	0.00055185351091176	0.00011292199431612	661.1333481497944
0.00011291839733495998	0.00011291839733495998	0.00055182120922332	0.00055182120922332	0.00055182120922332	0.00011291839733495998	661.1444604956106
0.00011291480409708	0.00011291480409708	0.00055178899379412	0.00055178899379412	0.00055178899379412	0.00011291480409708	661.1555728414269
0.00011291117855219999	0.00011291117855219999	0.0005517568432668	0.0005517568432668	0.0005517568432668	0.00011291117855219999	661.166685187243
0.00011290755616175999	0.00011290755616175999	0.0005517247258952399	0.0005517247258952399	0.0005517247258952399	0.00011290755616175999	661.1777975330592
0.00011290398944196	0.00011290398944196	0.00055169268562728	0.00055169268562728	0.00055169268562728	0.00011290398944196	661.1889098788754
0.00011290036736219999	0.00011290036736219999	0.00055166071250352	0.00055166071250352	0.00055166071250352	0.00011290036736219999	661.2000222246917
0.00011289677145312	0.00011289677145312	0.00055162877502768	0.00055162877502768	0.00055162877502768	0.00011289677145312	661.211134570508
0.00011289317932667999	0.00011289317932667999	0.00055159689734904	0.00055159689734904	0.00055159689734904	0.00011289317932667999	661.222246916324
0.000112889583705	0.000112889583705	0.00055156507663152	0.00055156507663152	0.00055156507663152	0.000112889583705	661.2333592621402
0.00011288596242528	0.00011288596242528	0.00055153328314128	0.00055153328314128	0.00055153328314128	0.00011288596242528	661.2444716079565
0.00011288239673051999	0.00011288239673051999	0.0005515015421313599	0.0005515015421313599	0.0005515015421313599	0.00011288239673051999	661.2555839537728
0.00011287877574156	0.00011287877574156	0.0005514698517598799	0.0005514698517598799	0.0005514698517598799	0.00011287877574156	661.2666962995888
0.00011287518090311999	0.00011287518090311999	0.0005514381835871999	0.0005514381835871999	0.0005514381835871999	0.00011287518090311999	661.277808645405
0.00011287158975815999	0.00011287158975815999	0.0005514065688560399	0.0005514065688560399	0.0005514065688560399	0.00011287158975815999	661.2889209912213
0.00011286796645512	0.00011286796645512	0.00055137497984652	0.00055137497984652	0.00055137497984652	0.00011286796645512	661.3000333370376
0.00011286437574923999	0.00011286437574923999	0.00055134341533824	0.00055134341533824	0.00055134341533824	0.00011286437574923999	661.3111456828536
0.00011286078152891999	0.00011286078152891999	0.0005513119006024799	0.0005513119006024799	0.0005513119006024799	0.00011286078152891999	661.3222580286698
0.00011285716164348	0.00011285716164348	0.0005512804062352799	0.0005512804062352799	0.0005512804062352799	0.00011285716164348	661.3333703744861
0.00011285357147028	0.00011285357147028	0.00055124893356312	0.00055124893356312	0.00055124893356312	0.00011285357147028	661.3444827203023
0.00011284997788079999	0.00011284997788079999	0.00055121749922184	0.00055121749922184	0.00055121749922184	0.00011284997788079999	661.3555950661184
0.00011284638806196	0.00011284638806196	0.00055118609701908	0.00055118609701908	0.00055118609701908	0.00011284638806196	661.3667074119346
0.00011284279471691999	0.00011284279471691999	0.0005511547307036399	0.0005511547307036399	0.0005511547307036399	0.00011284279471691999	661.3778197577509
0.00011283917584307999	0.00011283917584307999	0.0005511233722986	0.0005511233722986	0.0005511233722986	0.00011283917584307999	661.3889321035671
0.00011283561236915999	0.00011283561236915999	0.00055109204765916	0.00055109204765916	0.00055109204765916	0.00011283561236915999	661.4000444493832
0.00011283199386479999	0.00011283199386479999	0.00055106075030304	0.00055106075030304	0.00055106075030304	0.00011283199386479999	661.4111567951993
0.00011282843073191999	0.00011282843073191999	0.0005510294789658	0.0005510294789658	0.0005510294789658	0.00011282843073191999	661.4222691410157
0.00011282481259703999	0.00011282481259703999	0.000550998233217	0.000550998233217	0.000550998233217	0.00011282481259703999	661.4333814868319
0.00011282124980508	0.00011282124980508	0.00055096701382212	0.00055096701382212	0.00055096701382212	0.00011282124980508	661.444493832648
0.0001128176317728	0.0001128176317728	0.00055093583176752	0.00055093583176752	0.00055093583176752	0.0001128176317728	661.4556061784641
0.00011281401120707999	0.00011281401120707999	0.00055090463907672	0.00055090463907672	0.00055090463907672	0.00011281401120707999	661.4667185242805
0.00011281042316171999	0.00011281042316171999	0.0005508734620247999	0.0005508734620247999	0.0005508734620247999	0.00011281042316171999	661.4778308700967
0.00011280683171135998	0.00011280683171135998	0.0005508423148847999	0.0005508423148847999	0.0005508423148847999	0.00011280683171135998	661.4889432159129
0.00011280324402012	0.00011280324402012	0.00055081119021888	0.00055081119021888	0.00055081119021888	0.00011280324402012	661.5000555617289
0.00011279965292567998	0.00011279965292567998	0.0005507800864266	0.0005507800864266	0.0005507800864266	0.00011279965292567998	661.5111679075453
0.00011279606558856	0.00011279606558856	0.0005507490026562	0.0005507490026562	0.0005507490026562	0.00011279606558856	661.5222802533615
0.00011279247485003999	0.00011279247485003999	0.0005507179384180799	0.0005507179384180799	0.0005507179384180799	0.00011279247485003999	661.5333925991777
0.00011278888786703999	0.00011278888786703999	0.00055068689379624	0.00055068689379624	0.00055068689379624	0.00011278888786703999	661.5445049449937
0.00011278529731967998	0.00011278529731967998	0.00055065587376492	0.00055065587376492	0.00055065587376492	0.00011278529731967998	661.5556172908101
0.0001127816814024	0.0001127816814024	0.00055062485111364	0.00055062485111364	0.00055062485111364	0.0001127816814024	661.5667296366263
0.00011277812065728	0.00011277812065728	0.0005505938519388	0.0005505938519388	0.0005505938519388	0.00011277812065728	661.5778419824425
0.00011277450510911999	0.00011277450510911999	0.00055056286950804	0.00055056286950804	0.00055056286950804	0.00011277450510911999	661.5889543282588
0.00011277094486079999	0.00011277094486079999	0.000550531897875	0.000550531897875	0.000550531897875	0.00011277094486079999	661.6000666740749
0.00011276735536776	0.00011276735536776	0.00055050095980032	0.00055050095980032	0.00055050095980032	0.00011276735536776	661.6111790198911
0.00011276376962364	0.00011276376962364	0.00055047003133152	0.00055047003133152	0.00055047003133152	0.00011276376962364	661.6222913657073
0.00011276018048627999	0.00011276018048627999	0.0005504391170648399	0.0005504391170648399	0.0005504391170648399	0.00011276018048627999	661.6334037115236
0.00011275659509604	0.00011275659509604	0.0005504082172178399	0.0005504082172178399	0.0005504082172178399	0.00011275659509604	661.6445160573397
0.00011275300631424	0.00011275300631424	0.00055037733164352	0.00055037733164352	0.00055037733164352	0.00011275300631424	661.6556284031559
0.00011274942127775999	0.00011274942127775999	0.0005503464601018799	0.0005503464601018799	0.0005503464601018799	0.00011274942127775999	661.6667407489721
0.00011274583285175999	0.00011274583285175999	0.00055031560232616	0.00055031560232616	0.00055031560232616	0.00011274583285175999	661.6778530947884
0.00011274224816903999	0.00011274224816903999	0.00055028475803832	0.00055028475803832	0.00055028475803832	0.00011274224816903999	661.6889654406045
0.0001127386600986	0.0001127386600986	0.0005502539269602	0.0005502539269602	0.0005502539269602	0.0001127386600986	661.7000777864207
0.00011273507576963999	0.00011273507576963999	0.0005502231088130399	0.0005502231088130399	0.0005502231088130399	0.00011273507576963999	661.7111901322369
0.00011273148805463998	0.00011273148805463998	0.00055019230331988	0.00055019230331988	0.00055019230331988	0.00011273148805463998	661.7223024780532
0.00011272790407932	0.00011272790407932	0.0005501615102011199	0.0005501615102011199	0.0005501615102011199	0.00011272790407932	661.7334148238692
0.00011272431672	0.00011272431672	0.0005501307291739199	0.0005501307291739199	0.0005501307291739199	0.00011272431672	661.7445271696855
0.00011272073309807998	0.00011272073309807998	0.00055009995994116	0.00055009995994116	0.00055009995994116	0.00011272073309807998	661.7556395155017
0.00011271714609407999	0.00011271714609407999	0.0005500692021802799	0.0005500692021802799	0.0005500692021802799	0.00011271714609407999	661.766751861318
0.00011271356282592	0.00011271356282592	0.00055003845550536	0.00055003845550536	0.00055003845550536	0.00011271356282592	661.777864207134
0.00011270997617736	0.00011270997617736	0.0005500077193752	0.0005500077193752	0.0005500077193752	0.00011270997617736	661.7889765529503
0.00011270639326271998	0.00011270639326271998	0.000549976992699	0.000549976992699	0.000549976992699	0.00011270639326271998	661.8000888987665
0.00011270280718032	0.00011270280718032	0.00054994626974292	0.00054994626974292	0.00054994626974292	0.00011270280718032	661.8112012445828
0.00011269925042244	0.00011269925042244	0.00054991556807244	0.00054991556807244	0.00054991556807244	0.00011269925042244	661.8223135903988
0.00011269566803712	0.00011269566803712	0.00054988489054548	0.00054988489054548	0.00054988489054548	0.00011269566803712	661.8334259362151
0.00011269208227583999	0.00011269208227583999	0.00054985421527524	0.00054985421527524	0.00054985421527524	0.00011269208227583999	661.8445382820313
0.0001126885002438	0.0001126885002438	0.0005498235483024	0.0005498235483024	0.0005498235483024	0.0001126885002438	661.8556506278476
0.00011268491483771999	0.00011268491483771999	0.00054979289025204	0.00054979289025204	0.00054979289025204	0.00011268491483771999	661.8667629736638
0.00011268133315919999	0.00011268133315919999	0.00054976224116256	0.00054976224116256	0.00054976224116256	0.00011268133315919999	661.8778753194799
0.00011267774810832	0.00011267774810832	0.00054973160083728	0.00054973160083728	0.00054973160083728	0.00011267774810832	661.8889876652961
0.00011267416678295999	0.00011267416678295999	0.0005497009688355599	0.0005497009688355599	0.0005497009688355599	0.00011267416678295999	661.9001000111124
0.00011267058208728	0.00011267058208728	0.0005496703440792	0.0005496703440792	0.0005496703440792	0.00011267058208728	661.9112123569286
0.0001126670013882	0.0001126670013882	0.00054963972032868	0.00054963972032868	0.00054963972032868	0.0001126670013882	661.9223247027447
0.0001126634463288	0.0001126634463288	0.0005496091190198399	0.0005496091190198399	0.0005496091190198399	0.0001126634463288	661.9334370485609
0.00011265986216483999	0.00011265986216483999	0.00054957853645548	0.00054957853645548	0.00054957853645548	0.00011265986216483999	661.9445493943772
0.00011265628172148	0.00011265628172148	0.0005495479545366	0.0005495479545366	0.0005495479545366	0.00011265628172148	661.9556617401934
0.00011265269791248	0.00011265269791248	0.00054951737799792	0.00054951737799792	0.00054951737799792	0.00011265269791248	661.9667740860095
0.00011264911811171999	0.00011264911811171999	0.00054948680203152	0.00054948680203152	0.00054948680203152	0.00011264911811171999	661.9778864318257
0.00011264556365879999	0.00011264556365879999	0.00054945625304964	0.00054945625304964	0.00054945625304964	0.00011264556365879999	661.988998777642
0.00011264195492736	0.00011264195492736	0.00054942570425664	0.00054942570425664	0.00054942570425664	0.00011264195492736	662.0001111234582
0.00011263840081416	0.00011263840081416	0.00054939516078168	0.00054939516078168	0.00054939516078168	0.00011263840081416	662.0112234692745
0.00011263479245088	0.00011263479245088	0.0005493646218079199	0.0005493646218079199	0.0005493646218079199	0.00011263479245088	662.0223358150905
0.00011263123925159999	0.00011263123925159999	0.00054933407726664	0.00054933407726664	0.00054933407726664	0.00011263123925159999	662.0334481609068
0.00011262768564707998	0.00011262768564707998	0.0005493035765214	0.0005493035765214	0.0005493035765214	0.00011262768564707998	662.044560506723
0.00011262407783484	0.00011262407783484	0.00054927306945156	0.00054927306945156	0.00054927306945156	0.00011262407783484	662.0556728525391
0.00011262052457016	0.00011262052457016	0.00054924256625724	0.00054924256625724	0.00054924256625724	0.00011262052457016	662.0667851983553
0.00011261691712607999	0.00011261691712607999	0.000549212067189	0.000549212067189	0.000549212067189	0.00011261691712607999	662.0778975441716
0.00011261336452307999	0.00011261336452307999	0.00054918156681768	0.00054918156681768	0.00054918156681768	0.00011261336452307999	662.0890098899878
0.00011260978637255998	0.00011260978637255998	0.00054915109058316	0.00054915109058316	0.00054915109058316	0.00011260978637255998	662.100122235804
0.00011260620515652	0.00011260620515652	0.00054912060635904	0.00054912060635904	0.00054912060635904	0.00011260620515652	662.1112345816201
0.0001126026530718	0.0001126026530718	0.0005490901372556399	0.0005490901372556399	0.0005490901372556399	0.0001126026530718	662.1223469274364
0.00011259907544975999	0.00011259907544975999	0.00054905968642188	0.00054905968642188	0.00054905968642188	0.00011259907544975999	662.1334592732526
0.00011259549447624	0.00011259549447624	0.0005490292312998	0.0005490292312998	0.0005490292312998	0.00011259549447624	662.1445716190688
0.00011259191753987999	0.00011259191753987999	0.00054899877183708	0.00054899877183708	0.00054899877183708	0.00011259191753987999	662.1556839648849
0.00011258836541651999	0.00011258836541651999	0.000548968328232	0.000548968328232	0.000548968328232	0.00011258836541651999	662.1667963107012
0.00011258478884723999	0.00011258478884723999	0.0005489378943571199	0.0005489378943571199	0.0005489378943571199	0.00011258478884723999	662.1779086565174
0.00011258123775575998	0.00011258123775575998	0.00054890747121456	0.00054890747121456	0.00054890747121456	0.00011258123775575998	662.1890210023336
0.00011257765766675999	0.00011257765766675999	0.0005488770606648	0.0005488770606648	0.0005488770606648	0.00011257765766675999	662.2001333481497
0.00011257408163532	0.00011257408163532	0.0005488466404142399	0.0005488466404142399	0.0005488466404142399	0.00011257408163532	662.211245693966
0.00011257053074351999	0.00011257053074351999	0.0005488162422223199	0.0005488162422223199	0.0005488162422223199	0.00011257053074351999	662.2223580397822
0.00011256692587044	0.00011256692587044	0.00054878583953784	0.00054878583953784	0.00054878583953784	0.00011256692587044	662.2334703855984
0.0001125633756858	0.0001125633756858	0.0005487554325696	0.0005487554325696	0.0005487554325696	0.0001125633756858	662.2445827314147
0.00011255980000019999	0.00011255980000019999	0.00054872504723976	0.00054872504723976	0.00054872504723976	0.00011255980000019999	662.2556950772308
0.00011255622130224	0.00011255622130224	0.00054869465154708	0.00054869465154708	0.00054869465154708	0.00011255622130224	662.266807423047
0.0001125526716354	0.0001125526716354	0.00054866426795952	0.00054866426795952	0.00054866426795952	0.0001125526716354	662.2779197688632
0.00011254909685891998	0.00011254909685891998	0.0005486338944108	0.0005486338944108	0.0005486338944108	0.00011254909685891998	662.2890321146795
0.00011254554715259999	0.00011254554715259999	0.0005486035349298	0.0005486035349298	0.0005486035349298	0.00011254554715259999	662.3001444604956
0.00011254194356412	0.00011254194356412	0.00054857316689976	0.00054857316689976	0.00054857316689976	0.00011254194356412	662.3112568063118
0.00011253839531208	0.00011253839531208	0.00054854278082568	0.00054854278082568	0.00054854278082568	0.00011253839531208	662.322369152128
0.00011253487454687999	0.00011253487454687999	0.00054851244678744	0.00054851244678744	0.00054851244678744	0.00011253487454687999	662.3334814979443
0.00011253127150763999	0.00011253127150763999	0.0005484821142042	0.0005484821142042	0.0005484821142042	0.00011253127150763999	662.3445938437604
0.00011252772304776	0.00011252772304776	0.00054845176781076	0.00054845176781076	0.00054845176781076	0.00011252772304776	662.3557061895766
0.00011252414912075999	0.00011252414912075999	0.0005484214401219599	0.0005484214401219599	0.0005484214401219599	0.00011252414912075999	662.3668185353928
0.00011252057221871999	0.00011252057221871999	0.00054839110024272	0.00054839110024272	0.00054839110024272	0.00011252057221871999	662.3779308812091
0.00011251702427664	0.00011251702427664	0.00054836077100148	0.00054836077100148	0.00054836077100148	0.00011251702427664	662.3890432270252
0.00011251345129068	0.00011251345129068	0.0005483304505461599	0.0005483304505461599	0.0005483304505461599	0.00011251345129068	662.4001555728414
0.00011250990327611999	0.00011250990327611999	0.0005483001430455599	0.0005483001430455599	0.0005483001430455599	0.00011250990327611999	662.4112679186576
0.00011250630152064	0.00011250630152064	0.00054826982634816	0.00054826982634816	0.00054826982634816	0.00011250630152064	662.4223802644739
0.00011250275464031999	0.00011250275464031999	0.00054823949521128	0.00054823949521128	0.00054823949521128	0.00011250275464031999	662.43349261029
0.00011249920797611999	0.00011249920797611999	0.00054820918811964	0.00054820918811964	0.00054820918811964	0.00011249920797611999	662.4446049561062
0.00011249566384236	0.00011249566384236	0.00054817890117756	0.00054817890117756	0.00054817890117756	0.00011249566384236	662.4557173019224
0.00011249208837563998	0.00011249208837563998	0.00054814861271388	0.00054814861271388	0.00054814861271388	0.00011249208837563998	662.4668296477387
0.00011248854181163998	0.00011248854181163998	0.00054811832613936	0.00054811832613936	0.00054811832613936	0.00011248854181163998	662.4779419935549
0.00011248497025656001	0.00011248497025656001	0.00054808804602468	0.00054808804602468	0.00054808804602468	0.00011248497025656001	662.489054339371
0.00011248142359379999	0.00011248142359379999	0.0005480577775533599	0.0005480577775533599	0.0005480577775533599	0.00011248142359379999	662.5001666851872
0.00011247782330303999	0.00011247782330303999	0.00054802749915456	0.00054802749915456	0.00054802749915456	0.00011247782330303999	662.5112790310035
0.00011247427782348	0.00011247427782348	0.00054799720648152	0.00054799720648152	0.00054799720648152	0.00011247427782348	662.5223913768197
0.00011247073212072	0.00011247073212072	0.00054796694305392	0.00054796694305392	0.00054796694305392	0.00011247073212072	662.5335037226358
