beta_para	beta_perp	delta_para	delta_perp	delta	beta	energy
0.00023300259791628	0.00023300259791628	-0.00016659635583827999	-0.00016659635583827999	-0.00016659635583827999	0.00023300259791628	264.8
0.00023299182730751998	0.00023299182730751998	-0.00016769494938864002	-0.00016769494938864002	-0.00016769494938864002	0.00023299182730751998	264.8101903494001
0.00023298274227648	0.00023298274227648	-0.00016878678299916	-0.00016878678299916	-0.00016878678299916	0.00023298274227648	264.82038069880014
0.00023297877509148	0.00023297877509148	-0.00016987498369164	-0.00016987498369164	-0.00016987498369164	0.00023297877509148	264.83057104820034
0.00023297504801352	0.00023297504801352	-0.00017095885143816	-0.00017095885143816	-0.00017095885143816	0.00023297504801352	264.84076139760043
0.00023297091507575997	0.00023297091507575997	-0.00017204065978836	-0.00017204065978836	-0.00017204065978836	0.00023297091507575997	264.85095174700047
0.00023296706416680001	0.00023296706416680001	-0.00017312124229031998	-0.00017312124229031998	-0.00017312124229031998	0.00023296706416680001	264.8611420964006
0.00023296321179636	0.00023296321179636	-0.00017420079940955998	-0.00017420079940955998	-0.00017420079940955998	0.00023296321179636	264.8713324458007
0.00023295939049547998	0.00023295939049547998	-0.0001752796556064	-0.0001752796556064	-0.0001752796556064	0.00023295939049547998	264.88152279520085
0.00023295557175827998	0.00023295557175827998	-0.00017635800115152	-0.00017635800115152	-0.00017635800115152	0.00023295557175827998	264.89171314460094
0.00023295173094095998	0.00023295173094095998	-0.0001774360114632	-0.0001774360114632	-0.0001774360114632	0.00023295173094095998	264.90190349400103
0.00023294786658936	0.00023294786658936	-0.00017851387416395999	-0.00017851387416395999	-0.00017851387416395999	0.00023294786658936	264.9120938434011
0.00023294416013556	0.00023294416013556	-0.0001795916202834	-0.0001795916202834	-0.0001795916202834	0.00023294416013556	264.9222841928012
0.00023294044574951998	0.00023294044574951998	-0.00018066923837183998	-0.00018066923837183998	-0.00018066923837183998	0.00023294044574951998	264.9324745422013
0.00023293662006479998	0.00023293662006479998	-0.00018174693868224	-0.00018174693868224	-0.00018174693868224	0.00023293662006479998	264.94266489160145
0.00023293296325079996	0.00023293296325079996	-0.00018282475418904	-0.00018282475418904	-0.00018282475418904	0.00023293296325079996	264.95285524100154
0.00023292926443332001	0.00023292926443332001	-0.00018390266385924002	-0.00018390266385924002	-0.00018390266385924002	0.00023292926443332001	264.96304559040163
0.00023292558609491998	0.00023292558609491998	-0.00018498078081888	-0.00018498078081888	-0.00018498078081888	0.00023292558609491998	264.97323593980167
0.00023292196920336	0.00023292196920336	-0.00018605908119372	-0.00018605908119372	-0.00018605908119372	0.00023292196920336	264.9834262892018
0.00023291821696056	0.00023291821696056	-0.00018713768397755998	-0.00018713768397755998	-0.00018713768397755998	0.00023291821696056	264.993616638602
0.0002329145956128	0.0002329145956128	-0.0001882166630388	-0.0001882166630388	-0.0001882166630388	0.0002329145956128	265.00380698800205
0.00023291103008231997	0.00023291103008231997	-0.00018929593853796	-0.00018929593853796	-0.00018929593853796	0.00023291103008231997	265.01399733740215
0.00023290746137832	0.00023290746137832	-0.00019037555128536	-0.00019037555128536	-0.00019037555128536	0.00023290746137832	265.02418768680224
0.000232903884333	0.000232903884333	-0.00019145556896568	-0.00019145556896568	-0.00019145556896568	0.000232903884333	265.0343780362023
0.00023290034017032	0.00023290034017032	-0.00019253601757656	-0.00019253601757656	-0.00019253601757656	0.00023290034017032	265.0445683856025
0.00023289679863935998	0.00023289679863935998	-0.00019361689969883998	-0.00019361689969883998	-0.00019361689969883998	0.00023289679863935998	265.05475873500257
0.00023289317597892	0.00023289317597892	-0.00019469832646548	-0.00019469832646548	-0.00019469832646548	0.00023289317597892	265.06494908440266
0.00023288966576855998	0.00023288966576855998	-0.00019578032864771999	-0.00019578032864771999	-0.00019578032864771999	0.00023288966576855998	265.07513943380275
0.00023288616572675997	0.00023288616572675997	-0.00019686288604572	-0.00019686288604572	-0.00019686288604572	0.00023288616572675997	265.08532978320284
0.00023288273230644	0.00023288273230644	-0.00019794601923468	-0.00019794601923468	-0.00019794601923468	0.00023288273230644	265.095520132603
0.00023287921998972	0.00023287921998972	-0.00019902981826572	-0.00019902981826572	-0.00019902981826572	0.00023287921998972	265.1057104820031
0.00023287578373368001	0.00023287578373368001	-0.0002001144100806	-0.0002001144100806	-0.0002001144100806	0.00023287578373368001	265.1159008314032
0.00023287252467923999	0.00023287252467923999	-0.0002011997574684	-0.0002011997574684	-0.0002011997574684	0.00023287252467923999	265.12609118080326
0.00023286939557052	0.00023286939557052	-0.00020228576307036	-0.00020228576307036	-0.00020228576307036	0.00023286939557052	265.13628153020335
0.00023286596787096	0.00023286596787096	-0.00020337271793556	-0.00020337271793556	-0.00020337271793556	0.00023286596787096	265.1464718796035
0.0002328625744818	0.0002328625744818	-0.00020446108058856	-0.00020446108058856	-0.00020446108058856	0.0002328625744818	265.1566622290036
0.00023285915022407998	0.00023285915022407998	-0.00020555202545868	-0.00020555202545868	-0.00020555202545868	0.00023285915022407998	265.1668525784037
0.00023285982240407998	0.00023285982240407998	-0.00020664427213836002	-0.00020664427213836002	-0.00020664427213836002	0.00023285982240407998	265.17704292780377
0.00023286232571615998	0.00023286232571615998	-0.00020773520857476	-0.00020773520857476	-0.00020773520857476	0.00023286232571615998	265.18723327720386
0.00023286486111288	0.00023286486111288	-0.00020882509462008002	-0.00020882509462008002	-0.00020882509462008002	0.00023286486111288	265.19742362660395
0.000232867148037	0.000232867148037	-0.00020991484734984	-0.00020991484734984	-0.00020991484734984	0.000232867148037	265.2076139760041
0.00023286966585012	0.00023286966585012	-0.00021100474342164	-0.00021100474342164	-0.00021100474342164	0.00023286966585012	265.2178043254042
0.00023287228863024	0.00023287228863024	-0.00021209470877567999	-0.00021209470877567999	-0.00021209470877567999	0.00023287228863024	265.2279946748043
0.0002328749967012	0.0002328749967012	-0.00021318472556292	-0.00021318472556292	-0.00021318472556292	0.0002328749967012	265.2381850242044
0.00023287741165883998	0.00023287741165883998	-0.00021427503095868	-0.00021427503095868	-0.00021427503095868	0.00023287741165883998	265.24837537360446
0.00023287996904664	0.00023287996904664	-0.00021536581689695998	-0.00021536581689695998	-0.00021536581689695998	0.00023287996904664	265.2585657230046
0.00023288270635655998	0.00023288270635655998	-0.00021645688148652	-0.00021645688148652	-0.00021645688148652	0.00023288270635655998	265.2687560724047
0.00023288531928491999	0.00023288531928491999	-0.00021754829441484	-0.00021754829441484	-0.00021754829441484	0.00023288531928491999	265.2789464218048
0.00023288807135591998	0.00023288807135591998	-0.000218640103194	-0.000218640103194	-0.000218640103194	0.00023288807135591998	265.2891367712049
0.00023289070960092	0.00023289070960092	-0.0002197322959134	-0.0002197322959134	-0.0002197322959134	0.00023289070960092	265.29932712060497
0.0002328932655606	0.0002328932655606	-0.000220825109385	-0.000220825109385	-0.000220825109385	0.0002328932655606	265.3095174700051
0.00023289615713687997	0.00023289615713687997	-0.00022191843045372	-0.00022191843045372	-0.00022191843045372	0.00023289615713687997	265.3197078194052
0.0002328990964548	0.0002328990964548	-0.00022301199438576	-0.00022301199438576	-0.00022301199438576	0.0002328990964548	265.3298981688053
0.00023290162461671998	0.00023290162461671998	-0.000224106159561	-0.000224106159561	-0.000224106159561	0.00023290162461671998	265.34008851820533
0.00023290445145468	0.00023290445145468	-0.00022520107310219998	-0.00022520107310219998	-0.00022520107310219998	0.00023290445145468	265.3502788676055
0.00023290747153536	0.00023290747153536	-0.0002262964082688	-0.0002262964082688	-0.0002262964082688	0.00023290747153536	265.3604692170056
0.00023291041074155998	0.00023291041074155998	-0.00022739214782291998	-0.00022739214782291998	-0.00022739214782291998	0.00023291041074155998	265.37065956640566
0.00023291308992971999	0.00023291308992971999	-0.00022848860288892	-0.00022848860288892	-0.00022848860288892	0.00023291308992971999	265.3808499158058
0.00023291600707739998	0.00023291600707739998	-0.00022958585252135996	-0.00022958585252135996	-0.00022958585252135996	0.00023291600707739998	265.3910402652059
0.00023291912980512	0.00023291912980512	-0.00023068363693859998	-0.00023068363693859998	-0.00023068363693859998	0.00023291912980512	265.401230614606
0.00023292217228487998	0.00023292217228487998	-0.000231781976022	-0.000231781976022	-0.000231781976022	0.00023292217228487998	265.4114209640061
0.00023292516267216	0.00023292516267216	-0.00023288106817007998	-0.00023288106817007998	-0.00023288106817007998	0.00023292516267216	265.42161131340623
0.00023292832187447998	0.00023292832187447998	-0.00023398086360516	-0.00023398086360516	-0.00023398086360516	0.00023292832187447998	265.4318016628063
0.00023293133209008001	0.00023293133209008001	-0.00023508144603048001	-0.00023508144603048001	-0.00023508144603048001	0.00023293133209008001	265.4419920122064
0.0002329345778208	0.0002329345778208	-0.00023618282938644	-0.00023618282938644	-0.00023618282938644	0.0002329345778208	265.4521823616065
0.00023293759190832	0.00023293759190832	-0.00023728508033771999	-0.00023728508033771999	-0.00023728508033771999	0.00023293759190832	265.46237271100654
0.00023294058490356	0.00023294058490356	-0.00023838857126087999	-0.00023838857126087999	-0.00023838857126087999	0.00023294058490356	265.47256306040674
0.00023294375201352	0.00023294375201352	-0.00023949349645451998	-0.00023949349645451998	-0.00023949349645451998	0.00023294375201352	265.48275340980683
0.00023294703085296	0.00023294703085296	-0.00024060084831599999	-0.00024060084831599999	-0.00024060084831599999	0.00023294703085296	265.49294375920687
0.00023295391276908	0.00023295391276908	-0.00024170966517083998	-0.00024170966517083998	-0.00024170966517083998	0.00023295391276908	265.503134108607
0.0002329630609314	0.0002329630609314	-0.00024281741746883998	-0.00024281741746883998	-0.00024281741746883998	0.0002329630609314	265.5133244580071
0.00023297225443691998	0.00023297225443691998	-0.00024392408766228	-0.00024392408766228	-0.00024392408766228	0.00023297225443691998	265.52351480740725
0.00023298138716136	0.00023298138716136	-0.0002450305944066	-0.0002450305944066	-0.0002450305944066	0.00023298138716136	265.53370515680734
0.00023299080067236	0.00023299080067236	-0.00024613703453784	-0.00024613703453784	-0.00024613703453784	0.00023299080067236	265.54389550620743
0.0002329999663776	0.0002329999663776	-0.00024724352670072	-0.00024724352670072	-0.00024724352670072	0.0002329999663776	265.5540858556075
0.00023300913780384	0.00023300913780384	-0.00024835041207744	-0.00024835041207744	-0.00024835041207744	0.00023300913780384	265.5642762050076
0.00023301860321148	0.00023301860321148	-0.00024945752479499996	-0.00024945752479499996	-0.00024945752479499996	0.00023301860321148	265.57446655440776
0.00023302786643327998	0.00023302786643327998	-0.00025056494494032	-0.00025056494494032	-0.00025056494494032	0.00023302786643327998	265.58465690380785
0.00023303746211711997	0.00023303746211711997	-0.00025167267078156	-0.00025167267078156	-0.00025167267078156	0.00023303746211711997	265.59484725320794
0.00023304682084907997	0.00023304682084907997	-0.00025278066946092	-0.00025278066946092	-0.00025278066946092	0.00023304682084907997	265.60503760260804
0.00023305621907339998	0.00023305621907339998	-0.0002538891722334	-0.0002538891722334	-0.0002538891722334	0.00023305621907339998	265.61522795200807
0.00023306571377784	0.00023306571377784	-0.00025499811912564	-0.00025499811912564	-0.00025499811912564	0.00023306571377784	265.6254183014082
0.00023307530676131997	0.00023307530676131997	-0.00025610742101916	-0.00025610742101916	-0.00025610742101916	0.00023307530676131997	265.6356086508084
0.00023308473459839998	0.00023308473459839998	-0.00025721723622948	-0.00025721723622948	-0.00025721723622948	0.00023308473459839998	265.64579900020846
0.00023309447310732	0.00023309447310732	-0.0002583275519502	-0.0002583275519502	-0.0002583275519502	0.00023309447310732	265.65598934960855
0.00023310425328767998	0.00023310425328767998	-0.00025943813276604	-0.00025943813276604	-0.00025943813276604	0.00023310425328767998	265.66617969900864
0.00023311378177883998	0.00023311378177883998	-0.00026054920188384	-0.00026054920188384	-0.00026054920188384	0.00023311378177883998	265.6763700484087
0.0002331233863644	0.0002331233863644	-0.00026166096746495996	-0.00026166096746495996	-0.00026166096746495996	0.0002331233863644	265.6865603978089
0.00023313337025747998	0.00023313337025747998	-0.0002627731034526	-0.0002627731034526	-0.0002627731034526	0.00023313337025747998	265.69675074720897
0.00023314302865212	0.00023314302865212	-0.00026388567277908	-0.00026388567277908	-0.00026388567277908	0.00023314302865212	265.70694109660906
0.00023315295948276	0.00023315295948276	-0.0002649987415668	-0.0002649987415668	-0.0002649987415668	0.00023315295948276	265.71713144600915
0.00023316257695296	0.00023316257695296	-0.00026611230420312	-0.00026611230420312	-0.00026611230420312	0.00023316257695296	265.72732179540924
0.00023317222599216	0.00023317222599216	-0.0002672266826676	-0.0002672266826676	-0.0002672266826676	0.00023317222599216	265.7375121448094
0.00023318233729487998	0.00023318233729487998	-0.00026834156587368	-0.00026834156587368	-0.00026834156587368	0.00023318233729487998	265.7477024942095
0.00023319233566812	0.00023319233566812	-0.00026945680096824	-0.00026945680096824	-0.00026945680096824	0.00023319233566812	265.7578928436096
0.00023320228186139998	0.00023320228186139998	-0.00027057264260424	-0.00027057264260424	-0.00027057264260424	0.00023320228186139998	265.76808319300966
0.00023321241734039998	0.00023321241734039998	-0.0002716890098622	-0.0002716890098622	-0.0002716890098622	0.00023321241734039998	265.7782735424097
0.00023322243198384	0.00023322243198384	-0.00027280593668424	-0.00027280593668424	-0.00027280593668424	0.00023322243198384	265.7884638918099
0.0002332327502586	0.0002332327502586	-0.00027392329444404	-0.00027392329444404	-0.00027392329444404	0.0002332327502586	265.79865424121
0.0002332426176258	0.0002332426176258	-0.00027504118591056	-0.00027504118591056	-0.00027504118591056	0.0002332426176258	265.8088445906101
0.00023325260791644	0.00023325260791644	-0.00027615992240988	-0.00027615992240988	-0.00027615992240988	0.00023325260791644	265.81903494001017
0.00023326285779636	0.00023326285779636	-0.00027727926569376	-0.00027727926569376	-0.00027727926569376	0.00023326285779636	265.82922528941026
0.00023327322422736	0.00023327322422736	-0.00027839905932228	-0.00027839905932228	-0.00027839905932228	0.00023327322422736	265.8394156388104
0.0002332835395998	0.0002332835395998	-0.00027951936673056	-0.00027951936673056	-0.00027951936673056	0.0002332835395998	265.8496059882105
0.00023329397866296	0.00023329397866296	-0.00028064006211252	-0.00028064006211252	-0.00028064006211252	0.00023329397866296	265.85979633761053
0.00023330372953044	0.00023330372953044	-0.00028176158562708	-0.00028176158562708	-0.00028176158562708	0.00023330372953044	265.8699866870107
0.00023331411776603998	0.00023331411776603998	-0.00028288405154052	-0.00028288405154052	-0.00028288405154052	0.00023331411776603998	265.8801770364108
0.00023332468540943998	0.00023332468540943998	-0.00028400691588084	-0.00028400691588084	-0.00028400691588084	0.00023332468540943998	265.89036738581086
0.0002333352150072	0.0002333352150072	-0.00028513025299427996	-0.00028513025299427996	-0.00028513025299427996	0.0002333352150072	265.900557735211
0.00023334569568083998	0.00023334569568083998	-0.00028625418833423997	-0.00028625418833423997	-0.00028625418833423997	0.00023334569568083998	265.9107480846111
0.00023335621020444	0.00023335621020444	-0.00028737872278379996	-0.00028737872278379996	-0.00028737872278379996	0.00023335621020444	265.9209384340112
0.00023336658604283998	0.00023336658604283998	-0.00028850397189264	-0.00028850397189264	-0.00028850397189264	0.00023336658604283998	265.9311287834113
0.00023337717299687998	0.00023337717299687998	-0.00028962998730012	-0.00028962998730012	-0.00028962998730012	0.00023337717299687998	265.9413191328114
0.00023338805439803998	0.00023338805439803998	-0.00029075643597996	-0.00029075643597996	-0.00029075643597996	0.00023338805439803998	265.9515094822115
0.00023339861011236	0.00023339861011236	-0.00029188341350232	-0.00029188341350232	-0.00029188341350232	0.00023339861011236	265.9616998316116
0.00023340921904872	0.00023340921904872	-0.00029301117577632	-0.00029301117577632	-0.00029301117577632	0.00023340921904872	265.9718901810117
0.00023341997465903998	0.00023341997465903998	-0.00029413954879152	-0.00029413954879152	-0.00029413954879152	0.00023341997465903998	265.98208053041174
0.00023343060678395998	0.00023343060678395998	-0.00029526856108728	-0.00029526856108728	-0.00029526856108728	0.00023343060678395998	265.9922708798119
0.0002334412841358	0.0002334412841358	-0.00029639835457512	-0.00029639835457512	-0.00029639835457512	0.0002334412841358	266.00246122921203
0.00023345217946788	0.00023345217946788	-0.00029752878349044004	-0.00029752878349044004	-0.00029752878349044004	0.00023345217946788	266.01265157861206
0.00023346300736296	0.00023346300736296	-0.00029865981798408	-0.00029865981798408	-0.00029865981798408	0.00023346300736296	266.0228419280122
0.00023347387063619998	0.00023347387063619998	-0.00029979158663868	-0.00029979158663868	-0.00029979158663868	0.00023347387063619998	266.0330322774123
0.00023348489206199998	0.00023348489206199998	-0.00030092401313352	-0.00030092401313352	-0.00030092401313352	0.00023348489206199998	266.0432226268124
0.00023349592309728	0.00023349592309728	-0.00030205706743548	-0.00030205706743548	-0.00030205706743548	0.00023349592309728	266.05341297621254
0.00023350705445987998	0.00023350705445987998	-0.00030319074741672	-0.00030319074741672	-0.00030319074741672	0.00023350705445987998	266.06360332561263
0.00023351818398348	0.00023351818398348	-0.00030432497816303996	-0.00030432497816303996	-0.00030432497816303996	0.00023351818398348	266.0737936750127
0.00023352908154455998	0.00023352908154455998	-0.00030545993710068	-0.00030545993710068	-0.00030545993710068	0.00023352908154455998	266.0839840244128
0.0002335400438274	0.0002335400438274	-0.0003065957909616	-0.0003065957909616	-0.0003065957909616	0.0002335400438274	266.0941743738129
0.00023355130828872	0.00023355130828872	-0.00030773228057676003	-0.00030773228057676003	-0.00030773228057676003	0.00023355130828872	266.10436472321294
0.00023356236920388	0.00023356236920388	-0.00030886940551788	-0.00030886940551788	-0.00030886940551788	0.00023356236920388	266.11455507261314
0.00023357347946016	0.00023357347946016	-0.00031000738663655996	-0.00031000738663655996	-0.00031000738663655996	0.00023357347946016	266.12474542201323
0.00023358479643744	0.00023358479643744	-0.0003111461156178	-0.0003111461156178	-0.0003111461156178	0.00023358479643744	266.13493577141327
0.0002335962758232	0.0002335962758232	-0.00031228538641548	-0.00031228538641548	-0.00031228538641548	0.0002335962758232	266.1451261208134
0.0002336074738584	0.0002336074738584	-0.00031342540396356	-0.00031342540396356	-0.00031342540396356	0.0002336074738584	266.1553164702135
0.0002336190086202	0.0002336190086202	-0.00031456617875268	-0.00031456617875268	-0.00031456617875268	0.0002336190086202	266.16550681961365
0.00023363044640999997	0.00023363044640999997	-0.00031570750591236	-0.00031570750591236	-0.00031570750591236	0.00023363044640999997	266.17569716901374
