beta_para	beta_perp	delta_para	delta_perp	delta	beta	energy
0.00011998822518996	0.00011998822518996	0.0004735025966682	0.0004735025966682	0.0004735025966682	0.00011998822518996	661.5
0.00011998427639915998	0.00011998427639915998	0.00047346551850779996	0.00047346551850779996	0.00047346551850779996	0.00011998427639915998	661.5111262768838
0.00011998032732935999	0.00011998032732935999	0.00047342991017579995	0.00047342991017579995	0.00047342991017579995	0.00011998032732935999	661.5222525537678
0.0001199763932952	0.0001199763932952	0.0004733948521884	0.0004733948521884	0.0004733948521884	0.0001199763932952	661.5333788306516
0.00011997245954159999	0.00011997245954159999	0.00047336015441088	0.00047336015441088	0.00047336015441088	0.00011997245954159999	661.5445051075353
0.00011996852579927998	0.00011996852579927998	0.00047332572194843997	0.00047332572194843997	0.00047332572194843997	0.00011996852579927998	661.5556313844194
0.0001199645774826	0.0001199645774826	0.00047329148999940003	0.00047329148999940003	0.00047329148999940003	0.0001199645774826	661.5667576613032
0.00011996063001456	0.00011996063001456	0.00047325741012408	0.00047325741012408	0.00047325741012408	0.00011996063001456	661.5778839381873
0.00011995669680263999	0.00011995669680263999	0.00047322346679543997	0.00047322346679543997	0.00047322346679543997	0.00011995669680263999	661.589010215071
0.0001199527490808	0.0001199527490808	0.00047318963274096	0.00047318963274096	0.00047318963274096	0.0001199527490808	661.6001364919548
0.0001199488024608	0.0001199488024608	0.00047315584869611995	0.00047315584869611995	0.00047315584869611995	0.0001199488024608	661.6112627688387
0.0001199449779738	0.0001199449779738	0.00047312216137992	0.00047312216137992	0.00047312216137992	0.0001199449779738	661.6223890457226
0.00011994113304959999	0.00011994113304959999	0.00047308858717307994	0.00047308858717307994	0.00047308858717307994	0.00011994113304959999	661.6335153226064
0.00011993734984752	0.00011993734984752	0.00047305509412571997	0.00047305509412571997	0.00047305509412571997	0.00011993734984752	661.6446415994905
0.0001199335965198	0.0001199335965198	0.00047302171268004	0.00047302171268004	0.00047302171268004	0.0001199335965198	661.6557678763742
0.00011992984897524	0.00011992984897524	0.00047298843417839997	0.00047298843417839997	0.00047298843417839997	0.00011992984897524	661.666894153258
0.00011992609613292	0.00011992609613292	0.00047295523553339997	0.00047295523553339997	0.00047295523553339997	0.00011992609613292	661.6780204301419
0.0001199223651072	0.0001199223651072	0.00047292211948188	0.00047292211948188	0.00047292211948188	0.0001199223651072	661.6891467070258
0.00011991860862803999	0.00011991860862803999	0.00047288907276347997	0.00047288907276347997	0.00047288907276347997	0.00011991860862803999	661.7002729839096
0.00011991487941131999	0.00011991487941131999	0.00047285609116464	0.00047285609116464	0.00047285609116464	0.00011991487941131999	661.7113992607937
0.00011991112853051999	0.00011991112853051999	0.00047282318146644	0.00047282318146644	0.00047282318146644	0.00011991112853051999	661.7225255376774
0.00011990735866632	0.00011990735866632	0.00047279030263176	0.00047279030263176	0.00047279030263176	0.00011990735866632	661.7336518145613
0.00011990364076056	0.00011990364076056	0.00047275747733111997	0.00047275747733111997	0.00047275747733111997	0.00011990364076056	661.7447780914451
0.00011989990052423999	0.00011989990052423999	0.00047272472502432	0.00047272472502432	0.00047272472502432	0.00011989990052423999	661.755904368329
0.00011989614603131999	0.00011989614603131999	0.00047269201223196	0.00047269201223196	0.00047269201223196	0.00011989614603131999	661.7670306452129
0.00011989239673824	0.00011989239673824	0.0004726593353287199	0.0004726593353287199	0.0004726593353287199	0.00011989239673824	661.7781569220969
0.00011988864829992	0.00011988864829992	0.00047262669429539995	0.00047262669429539995	0.00047262669429539995	0.00011988864829992	661.7892831989806
0.00011988492016428	0.00011988492016428	0.00047259410050284	0.00047259410050284	0.00047259410050284	0.00011988492016428	661.8004094758645
0.00011988117367187999	0.00011988117367187999	0.00047256154970256	0.00047256154970256	0.00047256154970256	0.00011988117367187999	661.8115357527483
0.00011987744211468	0.00011987744211468	0.00047252903828328	0.00047252903828328	0.00047252903828328	0.00011987744211468	661.8226620296322
0.00011987369138663999	0.00011987369138663999	0.00047249656867655993	0.00047249656867655993	0.00047249656867655993	0.00011987369138663999	661.8337883065161
0.00011986992498575998	0.00011986992498575998	0.00047246410833672	0.00047246410833672	0.00047246410833672	0.00011986992498575998	661.8449145834
0.00011986620554832	0.00011986620554832	0.00047243167628507996	0.00047243167628507996	0.00047243167628507996	0.00011986620554832	661.8560408602839
0.00011986248401004	0.00011986248401004	0.000472399303332	0.000472399303332	0.000472399303332	0.00011986248401004	661.8671671371677
0.00011985873526571999	0.00011985873526571999	0.00047236696365479994	0.00047236696365479994	0.00047236696365479994	0.00011985873526571999	661.8782934140515
0.00011985498192239999	0.00011985498192239999	0.00047233463265299996	0.00047233463265299996	0.00047233463265299996	0.00011985498192239999	661.8894196909355
0.00011985126332352	0.00011985126332352	0.00047230233873828	0.00047230233873828	0.00047230233873828	0.00011985126332352	661.9005459678193
0.00011984750438448	0.00011984750438448	0.00047227007266872	0.00047227007266872	0.00047227007266872	0.00011984750438448	661.9116722447033
0.0001198437772842	0.0001198437772842	0.00047223782351388	0.00047223782351388	0.00047223782351388	0.0001198437772842	661.9227985215871
0.00011984004143904	0.00011984004143904	0.00047220561126876	0.00047220561126876	0.00047220561126876	0.00011984004143904	661.9339247984709
0.00011983629962675999	0.00011983629962675999	0.00047217341988036	0.00047217341988036	0.00047217341988036	0.00011983629962675999	661.9450510753547
0.00011983256322983999	0.00011983256322983999	0.00047214124916315997	0.00047214124916315997	0.00047214124916315997	0.00011983256322983999	661.9561773522387
0.00011982882813719999	0.00011982882813719999	0.00047210910358236	0.00047210910358236	0.00047210910358236	0.00011982882813719999	661.9673036291225
0.00011982508767612	0.00011982508767612	0.00047207697342515996	0.00047207697342515996	0.00047207697342515996	0.00011982508767612	661.9784299060065
0.00011982137539044	0.00011982137539044	0.000472044876105	0.000472044876105	0.000472044876105	0.00011982137539044	661.9895561828903
0.00011981763116219999	0.00011981763116219999	0.00047201281122444	0.00047201281122444	0.00047201281122444	0.00011981763116219999	662.0006824597741
0.00011981387990039999	0.00011981387990039999	0.00047198074673423997	0.00047198074673423997	0.00047198074673423997	0.00011981387990039999	662.011808736658
0.00011981015421636	0.00011981015421636	0.00047194869801815996	0.00047194869801815996	0.00047194869801815996	0.00011981015421636	662.0229350135419
0.00011980643048592	0.00011980643048592	0.00047191668774876	0.00047191668774876	0.00047191668774876	0.00011980643048592	662.0340612904257
0.00011980266817799999	0.00011980266817799999	0.00047188467942083995	0.00047188467942083995	0.00047188467942083995	0.00011980266817799999	662.0451875673097
0.00011979895974924	0.00011979895974924	0.0004718526821757599	0.0004718526821757599	0.0004718526821757599	0.00011979895974924	662.0563138441935
0.00011979523854096	0.00011979523854096	0.00047182072987044	0.00047182072987044	0.00047182072987044	0.00011979523854096	662.0674401210773
0.000119791490238	0.000119791490238	0.00047178878530163996	0.00047178878530163996	0.00047178878530163996	0.000119791490238	662.0785663979613
0.00011978776618848	0.00011978776618848	0.00047175685035035994	0.00047175685035035994	0.00047175685035035994	0.00011978776618848	662.0896926748451
0.00011978403172356	0.00011978403172356	0.00047172493494168	0.00047172493494168	0.00047172493494168	0.00011978403172356	662.1008189517289
0.00011978030982	0.00011978030982	0.00047169303721464	0.00047169303721464	0.00047169303721464	0.00011978030982	662.1119452286129
0.00011977657572911999	0.00011977657572911999	0.00047166115610999994	0.00047166115610999994	0.00047166115610999994	0.00011977657572911999	662.1230715054967
0.0001197728552118	0.0001197728552118	0.00047162929434048	0.00047162929434048	0.00047162929434048	0.0001197728552118	662.1341977823806
0.00011976910923984	0.00011976910923984	0.00047159744277864	0.00047159744277864	0.00047159744277864	0.00011976910923984	662.1453240592645
0.00011976538572528001	0.00011976538572528001	0.00047156559566543995	0.00047156559566543995	0.00047156559566543995	0.00011976538572528001	662.1564503361483
0.00011976166623468	0.00011976166623468	0.0004715337717048	0.0004715337717048	0.0004715337717048	0.00011976166623468	662.1675766130321
0.00011975794555391999	0.00011975794555391999	0.00047150197045812	0.00047150197045812	0.00047150197045812	0.00011975794555391999	662.178702889916
0.000119754211452	0.000119754211452	0.00047147018483064	0.00047147018483064	0.00047147018483064	0.000119754211452	662.1898291667999
0.00011975046586092	0.00011975046586092	0.00047143839526116	0.00047143839526116	0.00047143839526116	0.00011975046586092	662.2009554436838
0.00011974675082675999	0.00011974675082675999	0.00047140661413847993	0.00047140661413847993	0.00047140661413847993	0.00011974675082675999	662.2120817205677
0.00011974303671119999	0.00011974303671119999	0.00047137486559771996	0.00047137486559771996	0.00047137486559771996	0.00011974303671119999	662.2232079974515
0.00011973929276688	0.00011973929276688	0.00047134312219859997	0.00047134312219859997	0.00047134312219859997	0.00011973929276688	662.2343342743353
0.00011973557442348	0.00011973557442348	0.00047131138036152	0.00047131138036152	0.00047131138036152	0.00011973557442348	662.2454605512193
0.00011973185625444	0.00011973185625444	0.00047127965913047997	0.00047127965913047997	0.00047127965913047997	0.00011973185625444	662.2565868281032
0.00011972813832756	0.00011972813832756	0.00047124795426564	0.00047124795426564	0.00047124795426564	0.00011972813832756	662.267713104987
0.00011972441870855999	0.00011972441870855999	0.00047121627179087995	0.00047121627179087995	0.00047121627179087995	0.00011972441870855999	662.2788393818709
0.00011972066126711999	0.00011972066126711999	0.00047118458209571997	0.00047118458209571997	0.00047118458209571997	0.00011972066126711999	662.2899656587548
0.00011971694258387998	0.00011971694258387998	0.00047115287822268	0.00047115287822268	0.00047115287822268	0.00011971694258387998	662.3010919356385
0.00011971326276504	0.00011971326276504	0.00047112122292528	0.00047112122292528	0.00047112122292528	0.00011971326276504	662.3122182125225
0.00011970950763923999	0.00011970950763923999	0.00047108958072611997	0.00047108958072611997	0.00047108958072611997	0.00011970950763923999	662.3233444894064
0.00011970579040248	0.00011970579040248	0.0004710579207262799	0.0004710579207262799	0.0004710579207262799	0.00011970579040248	662.3344707662902
0.00011970208413588	0.00011970208413588	0.00047102628516323996	0.00047102628516323996	0.00047102628516323996	0.00011970208413588	662.345597043174
0.00011969837026188	0.00011969837026188	0.00047099467388603993	0.00047099467388603993	0.00047099467388603993	0.00011969837026188	662.356723320058
0.00011969462953428	0.00011969462953428	0.00047096306019984	0.00047096306019984	0.00047096306019984	0.00011969462953428	662.3678495969417
0.00011969091822456	0.00011969091822456	0.0004709314517196	0.0004709314517196	0.0004709314517196	0.00011969091822456	662.3789758738257
0.00011968717922339999	0.00011968717922339999	0.00047089984480596	0.00047089984480596	0.00047089984480596	0.00011968717922339999	662.3901021507096
0.00011968348874016	0.00011968348874016	0.00047086825136268	0.00047086825136268	0.00047086825136268	0.00011968348874016	662.4012284275934
0.00011967976044647999	0.00011967976044647999	0.00047083667834087997	0.00047083667834087997	0.00047083667834087997	0.00011967976044647999	662.4123547044774
0.00011967604620396	0.00011967604620396	0.0004708050992862	0.0004708050992862	0.0004708050992862	0.00011967604620396	662.4234809813612
0.00011967235365132	0.00011967235365132	0.00047077355164680003	0.00047077355164680003	0.00047077355164680003	0.00011967235365132	662.4346072582449
0.00011966860223747998	0.00011966860223747998	0.00047074200395712	0.00047074200395712	0.00047074200395712	0.00011966860223747998	662.445733535129
0.00011966489870208	0.00011966489870208	0.00047071045078055996	0.00047071045078055996	0.00047071045078055996	0.00011966489870208	662.4568598120128
0.00011966116952796	0.00011966116952796	0.00047067891124368	0.00047067891124368	0.00047067891124368	0.00011966116952796	662.4679860888966
0.0001196574586338	0.0001196574586338	0.00047064736868015995	0.00047064736868015995	0.00047064736868015995	0.0001196574586338	662.4791123657806
0.00011965376448948	0.00011965376448948	0.00047061585441072	0.00047061585441072	0.00047061585441072	0.00011965376448948	662.4902386426644
0.00011965002477828	0.00011965002477828	0.00047058434131691995	0.00047058434131691995	0.00047058434131691995	0.00011965002477828	662.5013649195481
0.0001196463250998	0.0001196463250998	0.00047055282720288	0.00047055282720288	0.00047055282720288	0.0001196463250998	662.5124911964322
0.00011964260025227999	0.00011964260025227999	0.00047052132362399994	0.00047052132362399994	0.00047052132362399994	0.00011964260025227999	662.523617473316
0.00011963889827675999	0.00011963889827675999	0.00047048982060672	0.00047048982060672	0.00047048982060672	0.00011963889827675999	662.5347437501999
0.00011963519754875999	0.00011963519754875999	0.00047045833493219996	0.00047045833493219996	0.00047045833493219996	0.00011963519754875999	662.5458700270838
0.00011963149982424	0.00011963149982424	0.00047042687285663996	0.00047042687285663996	0.00047042687285663996	0.00011963149982424	662.5569963039676
0.00011962775997275999	0.00011962775997275999	0.00047039540882495997	0.00047039540882495997	0.00047039540882495997	0.00011962775997275999	662.5681225808515
0.00011962404295992	0.00011962404295992	0.00047036393078256	0.00047036393078256	0.00047036393078256	0.00011962404295992	662.5792488577354
0.00011962033149299998	0.00011962033149299998	0.00047033245896324	0.00047033245896324	0.00047033245896324	0.00011962033149299998	662.5903751346192
0.00011961663423864	0.00011961663423864	0.00047030100106824	0.00047030100106824	0.00047030100106824	0.00011961663423864	662.6015014115031
0.0001196129247612	0.0001196129247612	0.00047026955496192	0.00047026955496192	0.00047026955496192	0.0001196129247612	662.612627688387
0.00011960921998979999	0.00011960921998979999	0.00047023811429231996	0.00047023811429231996	0.00047023811429231996	0.00011960921998979999	662.6237539652708
0.00011960551040519999	0.00011960551040519999	0.00047020668212256	0.00047020668212256	0.00047020668212256	0.00011960551040519999	662.6348802421547
0.00011960179685567999	0.00011960179685567999	0.00047017525396079996	0.00047017525396079996	0.00047017525396079996	0.00011960179685567999	662.6460065190386
0.00011959807572408	0.00011959807572408	0.0004701438170724	0.0004701438170724	0.0004701438170724	0.00011959807572408	662.6571327959224
0.00011959439025359999	0.00011959439025359999	0.00047011238966999995	0.00047011238966999995	0.00047011238966999995	0.00011959439025359999	662.6682590728063
0.00011959069132895999	0.00011959069132895999	0.00047008098982056	0.00047008098982056	0.00047008098982056	0.00011959069132895999	662.6793853496902
0.00011958696751812	0.00011958696751812	0.00047004958931291997	0.00047004958931291997	0.00047004958931291997	0.00011958696751812	662.6905116265741
0.00011958324462108	0.00011958324462108	0.00047001817012895996	0.00047001817012895996	0.00047001817012895996	0.00011958324462108	662.7016379034579
0.00011957955921515999	0.00011957955921515999	0.00046998676171752	0.00046998676171752	0.00046998676171752	0.00011957955921515999	662.7127641803418
0.000119575849749	0.000119575849749	0.00046995536564531994	0.00046995536564531994	0.00046995536564531994	0.000119575849749	662.7238904572257
0.00011957216536128	0.00011957216536128	0.00046992398122703996	0.00046992398122703996	0.00046992398122703996	0.00011957216536128	662.7350167341095
0.00011956844474831999	0.00011956844474831999	0.00046989260201616	0.00046989260201616	0.00046989260201616	0.00011956844474831999	662.7461430109934
0.00011956474751628	0.00011956474751628	0.00046986121674828	0.00046986121674828	0.00046986121674828	0.00011956474751628	662.7572692878773
0.0001195610494962	0.0001195610494962	0.00046982984838432	0.00046982984838432	0.00046982984838432	0.0001195610494962	662.7683955647611
0.00011955733060932	0.00011955733060932	0.00046979847499572	0.00046979847499572	0.00046979847499572	0.00011955733060932	662.779521841645
0.00011955364344731999	0.00011955364344731999	0.00046976711022504	0.00046976711022504	0.00046976711022504	0.00011955364344731999	662.7906481185289
0.00011954991162167999	0.00011954991162167999	0.0004697357385468	0.0004697357385468	0.0004697357385468	0.00011954991162167999	662.8017743954127
0.00011954624056091999	0.00011954624056091999	0.00046970436567756	0.00046970436567756	0.00046970436567756	0.00011954624056091999	662.8129006722967
0.00011954254837103998	0.00011954254837103998	0.0004696730216688	0.0004696730216688	0.0004696730216688	0.00011954254837103998	662.8240269491805
0.00011953885342667999	0.00011953885342667999	0.0004696416876486	0.0004696416876486	0.0004696416876486	0.00011953885342667999	662.8351532260643
0.0001195351304472	0.0001195351304472	0.00046961034832272	0.00046961034832272	0.00046961034832272	0.0001195351304472	662.8462795029483
0.00011953142137439999	0.00011953142137439999	0.0004695789935118	0.0004695789935118	0.0004695789935118	0.00011953142137439999	662.8574057798321
0.00011952772937052	0.00011952772937052	0.00046954764330168	0.00046954764330168	0.00046954764330168	0.00011952772937052	662.8685320567159
0.00011952404717628	0.00011952404717628	0.00046951631563992	0.00046951631563992	0.00046951631563992	0.00011952404717628	662.8796583335999
0.00011952032923847999	0.00011952032923847999	0.00046948498651656	0.00046948498651656	0.00046948498651656	0.00011952032923847999	662.8907846104837
0.00011951664319248	0.00011951664319248	0.00046945365718848	0.00046945365718848	0.00046945365718848	0.00011951664319248	662.9019108873675
0.00011951292708048	0.00011951292708048	0.00046942232897015997	0.00046942232897015997	0.00046942232897015997	0.00011951292708048	662.9130371642515
0.00011950924390704	0.00011950924390704	0.00046939100060183997	0.00046939100060183997	0.00046939100060183997	0.00011950924390704	662.9241634411353
0.00011950554112848	0.00011950554112848	0.00046935968214816	0.00046935968214816	0.00046935968214816	0.00011950554112848	662.9352897180191
0.00011950184795412	0.00011950184795412	0.00046932836065116	0.00046932836065116	0.00046932836065116	0.00011950184795412	662.9464159949031
0.00011949815632979999	0.00011949815632979999	0.00046929704317512	0.00046929704317512	0.00046929704317512	0.00011949815632979999	662.9575422717869
0.00011949447365496	0.00011949447365496	0.00046926573624623993	0.00046926573624623993	0.00046926573624623993	0.00011949447365496	662.9686685486708
0.00011949077233728	0.00011949077233728	0.00046923442729932	0.00046923442729932	0.00046923442729932	0.00011949077233728	662.9797948255547
0.00011948710665359999	0.00011948710665359999	0.00046920313411295995	0.00046920313411295995	0.00046920313411295995	0.00011948710665359999	662.9909211024385
0.0001194833878608	0.0001194833878608	0.00046917184617683997	0.00046917184617683997	0.00046917184617683997	0.0001194833878608	663.0020473793224
0.00011947969574855999	0.00011947969574855999	0.00046914054380628	0.00046914054380628	0.00046914054380628	0.00011947969574855999	663.0131736562063
0.00011947599918767999	0.00011947599918767999	0.00046910924992356	0.00046910924992356	0.00046910924992356	0.00011947599918767999	663.0242999330901
