beta_para	beta_perp	delta_para	delta_perp	delta	beta	energy
0.000000710653669517	0.000000710653669517	0.000039112507381493	0.000039112507381493	0.000039112507381493	0.000000710653669517	2457.000000000000000000
0.000000710656580192	0.000000710656580192	0.000039111821138144	0.000039111821138144	0.000039111821138144	0.000000710656580192	2457.010000000000218279
0.000000710661333770	0.000000710661333770	0.000039111141528365	0.000039111141528365	0.000039111141528365	0.000000710661333770	2457.019999999999981810
0.000000710664458081	0.000000710664458081	0.000039110464291104	0.000039110464291104	0.000039110464291104	0.000000710664458081	2457.030000000000200089
0.000000710669211470	0.000000710669211470	0.000039109788130257	0.000039109788130257	0.000039109788130257	0.000000710669211470	2457.039999999999963620
0.000000710673964758	0.000000710673964758	0.000039109113823521	0.000039109113823521	0.000039109113823521	0.000000710673964758	2457.050000000000181899
0.000000710678717945	0.000000710678717945	0.000039108441499506	0.000039108441499506	0.000039108441499506	0.000000710678717945	2457.059999999999945430
0.000000710679999022	0.000000710679999022	0.000039107768464794	0.000039107768464794	0.000039107768464794	0.000000710679999022	2457.070000000000163709
0.000000710684752035	0.000000710684752035	0.000039107094634259	0.000039107094634259	0.000039107094634259	0.000000710684752035	2457.079999999999927240
0.000000710689504948	0.000000710689504948	0.000039106422763233	0.000039106422763233	0.000039106422763233	0.000000710689504948	2457.090000000000145519
0.000000710692628687	0.000000710692628687	0.000039105750898534	0.000039105750898534	0.000039105750898534	0.000000710692628687	2457.099999999999909051
0.000000710697381411	0.000000710697381411	0.000039105078983703	0.000039105078983703	0.000039105078983703	0.000000710697381411	2457.110000000000127329
0.000000710702134034	0.000000710702134034	0.000039104408854978	0.000039104408854978	0.000039104408854978	0.000000710702134034	2457.119999999999890861
0.000000710703414716	0.000000710703414716	0.000039103737627304	0.000039103737627304	0.000039103737627304	0.000000710703414716	2457.130000000000109139
0.000000710708167166	0.000000710708167166	0.000039103065230725	0.000039103065230725	0.000039103065230725	0.000000710708167166	2457.139999999999872671
0.000000710712919514	0.000000710712919514	0.000039102394156652	0.000039102394156652	0.000039102394156652	0.000000710712919514	2457.150000000000090949
0.000000710717671762	0.000000710717671762	0.000039101723984974	0.000039101723984974	0.000039101723984974	0.000000710717671762	2457.159999999999854481
0.000000710720794929	0.000000710720794929	0.000039101053445436	0.000039101053445436	0.000039101053445436	0.000000710720794929	2457.170000000000072760
0.000000710725546988	0.000000710725546988	0.000039100382552817	0.000039100382552817	0.000039100382552817	0.000000710725546988	2457.179999999999836291
0.000000710730298947	0.000000710730298947	0.000039099712887578	0.000039099712887578	0.000039099712887578	0.000000710730298947	2457.190000000000054570
0.000000710733208102	0.000000710733208102	0.000039099043110331	0.000039099043110331	0.000039099043110331	0.000000710733208102	2457.199999999999818101
0.000000710736330946	0.000000710736330946	0.000039098371996927	0.000039098371996927	0.000039098371996927	0.000000710736330946	2457.210000000000036380
0.000000710741082630	0.000000710741082630	0.000039097700856902	0.000039097700856902	0.000039097700856902	0.000000710741082630	2457.219999999999799911
0.000000710745834213	0.000000710745834213	0.000039097030497710	0.000039097030497710	0.000039097030497710	0.000000710745834213	2457.230000000000018190
0.000000710750585695	0.000000710750585695	0.000039096360871911	0.000039096360871911	0.000039096360871911	0.000000710750585695	2457.239999999999781721
0.000000710753708203	0.000000710753708203	0.000039095690795011	0.000039095690795011	0.000039095690795011	0.000000710753708203	2457.250000000000000000
0.000000710758459497	0.000000710758459497	0.000039095020645905	0.000039095020645905	0.000039095020645905	0.000000710758459497	2457.260000000000218279
0.000000710761368092	0.000000710761368092	0.000039094350300441	0.000039094350300441	0.000039094350300441	0.000000710761368092	2457.269999999999981810
0.000000710766119199	0.000000710766119199	0.000039093679747632	0.000039093679747632	0.000039093679747632	0.000000710766119199	2457.280000000000200089
0.000000710769241384	0.000000710769241384	0.000039093009088678	0.000039093009088678	0.000039093009088678	0.000000710769241384	2457.289999999999963620
0.000000710773992302	0.000000710773992302	0.000039092337918353	0.000039092337918353	0.000039092337918353	0.000000710773992302	2457.300000000000181899
0.000000710778743120	0.000000710778743120	0.000039091667385305	0.000039091667385305	0.000039091667385305	0.000000710778743120	2457.309999999999945430
0.000000710783493836	0.000000710783493836	0.000039090997468337	0.000039090997468337	0.000039090997468337	0.000000710783493836	2457.320000000000163709
0.000000710786615684	0.000000710786615684	0.000039090326956637	0.000039090326956637	0.000039090326956637	0.000000710786615684	2457.329999999999927240
0.000000710791366212	0.000000710791366212	0.000039089655882890	0.000039089655882890	0.000039089655882890	0.000000710791366212	2457.340000000000145519
0.000000710796116640	0.000000710796116640	0.000039088985810618	0.000039088985810618	0.000039088985810618	0.000000710796116640	2457.349999999999909051
0.000000710799024503	0.000000710799024503	0.000039088315104802	0.000039088315104802	0.000039088315104802	0.000000710799024503	2457.360000000000127329
0.000000710803774744	0.000000710803774744	0.000039087644057945	0.000039087644057945	0.000039087644057945	0.000000710803774744	2457.369999999999890861
0.000000710806896182	0.000000710806896182	0.000039086972797149	0.000039086972797149	0.000039086972797149	0.000000710806896182	2457.380000000000109139
0.000000710811646234	0.000000710811646234	0.000039086300909253	0.000039086300909253	0.000039086300909253	0.000000710811646234	2457.389999999999872671
0.000000710816396185	0.000000710816396185	0.000039085629494931	0.000039085629494931	0.000039085629494931	0.000000710816396185	2457.400000000000090949
0.000000710821146036	0.000000710821146036	0.000039084958175017	0.000039084958175017	0.000039084958175017	0.000000710821146036	2457.409999999999854481
0.000000710825895785	0.000000710825895785	0.000039084286883719	0.000039084286883719	0.000039084286883719	0.000000710825895785	2457.420000000000072760
0.000000710830645434	0.000000710830645434	0.000039083615541288	0.000039083615541288	0.000039083615541288	0.000000710830645434	2457.429999999999836291
0.000000710835730476	0.000000710835730476	0.000039082944429984	0.000039082944429984	0.000039082944429984	0.000000710835730476	2457.440000000000054570
0.000000710840479920	0.000000710840479920	0.000039082273941652	0.000039082273941652	0.000039082273941652	0.000000710840479920	2457.449999999999818101
0.000000710843386950	0.000000710843386950	0.000039081602517562	0.000039081602517562	0.000039081602517562	0.000000710843386950	2457.460000000000036380
0.000000710848136208	0.000000710848136208	0.000039080930242512	0.000039080930242512	0.000039080930242512	0.000000710848136208	2457.469999999999799911
0.000000710852885364	0.000000710852885364	0.000039080258491053	0.000039080258491053	0.000039080258491053	0.000000710852885364	2457.480000000000018190
0.000000710857634420	0.000000710857634420	0.000039079587217378	0.000039079587217378	0.000039079587217378	0.000000710857634420	2457.489999999999781721
0.000000710860754833	0.000000710860754833	0.000039078915198865	0.000039078915198865	0.000039078915198865	0.000000710860754833	2457.500000000000000000
0.000000710865503700	0.000000710865503700	0.000039078242415470	0.000039078242415470	0.000039078242415470	0.000000710865503700	2457.510000000000218279
0.000000710870252467	0.000000710870252467	0.000039077570026115	0.000039077570026115	0.000039077570026115	0.000000710870252467	2457.519999999999981810
0.000000710875001132	0.000000710875001132	0.000039076897680651	0.000039076897680651	0.000039076897680651	0.000000710875001132	2457.530000000000200089
0.000000710879749697	0.000000710879749697	0.000039076225344089	0.000039076225344089	0.000039076225344089	0.000000710879749697	2457.539999999999963620
0.000000710884498161	0.000000710884498161	0.000039075553047592	0.000039075553047592	0.000039075553047592	0.000000710884498161	2457.550000000000181899
0.000000710889246525	0.000000710889246525	0.000039074881139046	0.000039074881139046	0.000039074881139046	0.000000710889246525	2457.559999999999945430
0.000000710892366337	0.000000710892366337	0.000039074208463046	0.000039074208463046	0.000039074208463046	0.000000710892366337	2457.570000000000163709
0.000000710897114512	0.000000710897114512	0.000039073535066977	0.000039073535066977	0.000039073535066977	0.000000710897114512	2457.579999999999927240
0.000000710901862586	0.000000710901862586	0.000039072862505880	0.000039072862505880	0.000039072862505880	0.000000710901862586	2457.590000000000145519
0.000000710904768456	0.000000710904768456	0.000039072189096250	0.000039072189096250	0.000039072189096250	0.000000710904768456	2457.599999999999909051
0.000000710909516344	0.000000710909516344	0.000039071514766921	0.000039071514766921	0.000039071514766921	0.000000710909516344	2457.610000000000127329
0.000000710914264130	0.000000710914264130	0.000039070840763420	0.000039070840763420	0.000039070840763420	0.000000710914264130	2457.619999999999890861
0.000000710919011816	0.000000710919011816	0.000039070166268685	0.000039070166268685	0.000039070166268685	0.000000710919011816	2457.630000000000109139
0.000000710925723197	0.000000710925723197	0.000039069492673959	0.000039069492673959	0.000039069492673959	0.000000710925723197	2457.639999999999872671
0.000000710930470665	0.000000710930470665	0.000039068820304253	0.000039068820304253	0.000039068820304253	0.000000710930470665	2457.650000000000090949
0.000000710933589702	0.000000710933589702	0.000039068146572362	0.000039068146572362	0.000039068146572362	0.000000710933589702	2457.659999999999854481
0.000000710938336982	0.000000710938336982	0.000039067471892838	0.000039067471892838	0.000039067471892838	0.000000710938336982	2457.670000000000072760
0.000000710943084161	0.000000710943084161	0.000039066797483970	0.000039066797483970	0.000039066797483970	0.000000710943084161	2457.679999999999836291
0.000000710947831239	0.000000710947831239	0.000039066123009419	0.000039066123009419	0.000039066123009419	0.000000710947831239	2457.690000000000054570
0.000000710952578217	0.000000710952578217	0.000039065448424073	0.000039065448424073	0.000039065448424073	0.000000710952578217	2457.699999999999818101
0.000000710957325093	0.000000710957325093	0.000039064773709410	0.000039064773709410	0.000039064773709410	0.000000710957325093	2457.710000000000036380
0.000000710962071869	0.000000710962071869	0.000039064098853305	0.000039064098853305	0.000039064098853305	0.000000710962071869	2457.719999999999799911
0.000000710966818544	0.000000710966818544	0.000039063423844309	0.000039063423844309	0.000039063423844309	0.000000710966818544	2457.730000000000018190
0.000000710971565118	0.000000710971565118	0.000039062748667742	0.000039062748667742	0.000039062748667742	0.000000710971565118	2457.739999999999781721
0.000000710976311591	0.000000710976311591	0.000039062073298279	0.000039062073298279	0.000039062073298279	0.000000710976311591	2457.750000000000000000
0.000000710981057964	0.000000710981057964	0.000039061397673408	0.000039061397673408	0.000039061397673408	0.000000710981057964	2457.760000000000218279
0.000000710985804236	0.000000710985804236	0.000039060721366570	0.000039060721366570	0.000039060721366570	0.000000710985804236	2457.769999999999981810
0.000000710992513979	0.000000710992513979	0.000039060045782636	0.000039060045782636	0.000039060045782636	0.000000710992513979	2457.780000000000200089
0.000000710997260034	0.000000710997260034	0.000039059370921420	0.000039059370921420	0.000039059370921420	0.000000710997260034	2457.789999999999963620
0.000000711002005987	0.000000711002005987	0.000039058695378702	0.000039058695378702	0.000039058695378702	0.000000711002005987	2457.800000000000181899
0.000000711006751840	0.000000711006751840	0.000039058019584400	0.000039058019584400	0.000039058019584400	0.000000711006751840	2457.809999999999945430
0.000000711011497592	0.000000711011497592	0.000039057343612921	0.000039057343612921	0.000039057343612921	0.000000711011497592	2457.820000000000163709
0.000000711016243243	0.000000711016243243	0.000039056667531169	0.000039056667531169	0.000039056667531169	0.000000711016243243	2457.829999999999927240
0.000000711020988793	0.000000711020988793	0.000039055991695402	0.000039055991695402	0.000039055991695402	0.000000711020988793	2457.840000000000145519
0.000000711024106164	0.000000711024106164	0.000039055314936342	0.000039055314936342	0.000039055314936342	0.000000711024106164	2457.849999999999909051
0.000000711028851526	0.000000711028851526	0.000039054637242781	0.000039054637242781	0.000039054637242781	0.000000711028851526	2457.860000000000127329
0.000000711033596788	0.000000711033596788	0.000039053959755197	0.000039053959755197	0.000039053959755197	0.000000711033596788	2457.869999999999890861
0.000000711038341948	0.000000711038341948	0.000039053282055603	0.000039053282055603	0.000039053282055603	0.000000711038341948	2457.880000000000109139
0.000000711043087008	0.000000711043087008	0.000039052603659161	0.000039052603659161	0.000039052603659161	0.000000711043087008	2457.889999999999872671
0.000000711049795348	0.000000711049795348	0.000039051925932856	0.000039051925932856	0.000039051925932856	0.000000711049795348	2457.900000000000090949
0.000000711054540190	0.000000711054540190	0.000039051248815572	0.000039051248815572	0.000039051248815572	0.000000711054540190	2457.909999999999854481
0.000000711059284932	0.000000711059284932	0.000039050570541522	0.000039050570541522	0.000039050570541522	0.000000711059284932	2457.920000000000072760
0.000000711065657545	0.000000711065657545	0.000039049892694494	0.000039049892694494	0.000039049892694494	0.000000711065657545	2457.929999999999836291
0.000000711070402072	0.000000711070402072	0.000039049215328129	0.000039049215328129	0.000039049215328129	0.000000711070402072	2457.940000000000054570
0.000000711075146498	0.000000711075146498	0.000039048537291810	0.000039048537291810	0.000039048537291810	0.000000711075146498	2457.949999999999818101
0.000000711079890823	0.000000711079890823	0.000039047858938948	0.000039047858938948	0.000039047858938948	0.000000711079890823	2457.960000000000036380
0.000000711084635048	0.000000711084635048	0.000039047180311145	0.000039047180311145	0.000039047180311145	0.000000711084635048	2457.969999999999799911
0.000000711089379172	0.000000711089379172	0.000039046501404522	0.000039046501404522	0.000039046501404522	0.000000711089379172	2457.980000000000018190
0.000000711094123195	0.000000711094123195	0.000039045822166119	0.000039045822166119	0.000039045822166119	0.000000711094123195	2457.989999999999781721
0.000000711098867117	0.000000711098867117	0.000039045142173035	0.000039045142173035	0.000039045142173035	0.000000711098867117	2458.000000000000000000
0.000000711105574144	0.000000711105574144	0.000039044462829068	0.000039044462829068	0.000039044462829068	0.000000711105574144	2458.010000000000218279
0.000000711110317849	0.000000711110317849	0.000039043784129059	0.000039043784129059	0.000039043784129059	0.000000711110317849	2458.019999999999981810
0.000000711115061453	0.000000711115061453	0.000039043104658115	0.000039043104658115	0.000039043104658115	0.000000711115061453	2458.030000000000200089
0.000000711119804956	0.000000711119804956	0.000039042424824836	0.000039042424824836	0.000039042424824836	0.000000711119804956	2458.039999999999963620
0.000000711124548359	0.000000711124548359	0.000039041744659076	0.000039041744659076	0.000039041744659076	0.000000711124548359	2458.050000000000181899
0.000000711129291661	0.000000711129291661	0.000039041064111040	0.000039041064111040	0.000039041064111040	0.000000711129291661	2458.059999999999945430
0.000000711134034862	0.000000711134034862	0.000039040382763768	0.000039040382763768	0.000039040382763768	0.000000711134034862	2458.070000000000163709
0.000000711140619346	0.000000711140619346	0.000039039701869971	0.000039039701869971	0.000039039701869971	0.000000711140619346	2458.079999999999927240
0.000000711145362331	0.000000711145362331	0.000039039020987042	0.000039039020987042	0.000039039020987042	0.000000711145362331	2458.090000000000145519
0.000000711152068276	0.000000711152068276	0.000039038340150797	0.000039038340150797	0.000039038340150797	0.000000711152068276	2458.099999999999909051
0.000000711156811044	0.000000711156811044	0.000039037659404234	0.000039037659404234	0.000039037659404234	0.000000711156811044	2458.110000000000127329
0.000000711163181431	0.000000711163181431	0.000039036978558634	0.000039036978558634	0.000039036978558634	0.000000711163181431	2458.119999999999890861
0.000000711167923984	0.000000711167923984	0.000039036298051955	0.000039036298051955	0.000039036298051955	0.000000711167923984	2458.130000000000109139
0.000000711172666436	0.000000711172666436	0.000039035616777605	0.000039035616777605	0.000039035616777605	0.000000711172666436	2458.139999999999872671
0.000000711177408787	0.000000711177408787	0.000039034935097264	0.000039034935097264	0.000039034935097264	0.000000711177408787	2458.150000000000090949
0.000000711182151038	0.000000711182151038	0.000039034253041504	0.000039034253041504	0.000039034253041504	0.000000711182151038	2458.159999999999854481
0.000000711186893188	0.000000711186893188	0.000039033570559036	0.000039033570559036	0.000039033570559036	0.000000711186893188	2458.170000000000072760
0.000000711191635237	0.000000711191635237	0.000039032887206765	0.000039032887206765	0.000039032887206765	0.000000711191635237	2458.179999999999836291
0.000000711198340103	0.000000711198340103	0.000039032204322714	0.000039032204322714	0.000039032204322714	0.000000711198340103	2458.190000000000054570
0.000000711203081935	0.000000711203081935	0.000039031521497220	0.000039031521497220	0.000039031521497220	0.000000711203081935	2458.199999999999818101
0.000000711209451267	0.000000711209451267	0.000039030838086611	0.000039030838086611	0.000039030838086611	0.000000711209451267	2458.210000000000036380
0.000000711216034058	0.000000711216034058	0.000039030155823237	0.000039030155823237	0.000039030155823237	0.000000711216034058	2458.219999999999799911
0.000000711220775560	0.000000711220775560	0.000039029473583022	0.000039029473583022	0.000039029473583022	0.000000711220775560	2458.230000000000018190
0.000000711225516961	0.000000711225516961	0.000039028790385872	0.000039028790385872	0.000039028790385872	0.000000711225516961	2458.239999999999781721
0.000000711230258261	0.000000711230258261	0.000039028106604655	0.000039028106604655	0.000039028106604655	0.000000711230258261	2458.250000000000000000
0.000000711234999460	0.000000711234999460	0.000039027421834720	0.000039027421834720	0.000039027421834720	0.000000711234999460	2458.260000000000218279
0.000000711241703349	0.000000711241703349	0.000039026737144871	0.000039026737144871	0.000039026737144871	0.000000711241703349	2458.269999999999981810
0.000000711248071840	0.000000711248071840	0.000039026053685286	0.000039026053685286	0.000039026053685286	0.000000711248071840	2458.280000000000200089
0.000000711252812708	0.000000711252812708	0.000039025369985784	0.000039025369985784	0.000039025369985784	0.000000711252812708	2458.289999999999963620
0.000000711257553476	0.000000711257553476	0.000039024684879983	0.000039024684879983	0.000039024684879983	0.000000711257553476	2458.300000000000181899
0.000000711264135181	0.000000711264135181	0.000039024000024445	0.000039024000024445	0.000039024000024445	0.000000711264135181	2458.309999999999945430
