beta_para	beta_perp	delta_para	delta_perp	delta	beta	energy
0.000445195789320800	0.000445195789320800	0.001205421257757000	0.001205421257757000	0.001205421257757000	0.000445195789320800	269.899999999999977263
0.000441963343597200	0.000441963343597200	0.001192208110311900	0.001192208110311900	0.001192208110311900	0.000441963343597200	270.199999999999988631
0.000438750779787800	0.000438750779787800	0.001177501839105800	0.001177501839105800	0.001177501839105800	0.000438750779787800	270.500000000000000000
0.000435557989614000	0.000435557989614000	0.001162048881161700	0.001162048881161700	0.001162048881161700	0.000435557989614000	270.800000000000011369
0.000432386519413900	0.000432386519413900	0.001146014081208400	0.001146014081208400	0.001146014081208400	0.000432386519413900	271.100000000000022737
0.000429236251272600	0.000429236251272600	0.001129461266751500	0.001129461266751500	0.001129461266751500	0.000429236251272600	271.399999999999977263
0.000426105421350400	0.000426105421350400	0.001112420799966600	0.001112420799966600	0.001112420799966600	0.000426105421350400	271.699999999999988631
0.000422993924076400	0.000422993924076400	0.001094909156646200	0.001094909156646200	0.001094909156646200	0.000422993924076400	272.000000000000000000
0.000419903293931800	0.000419903293931800	0.001076948711884100	0.001076948711884100	0.001076948711884100	0.000419903293931800	272.300000000000011369
0.000416795792441400	0.000416795792441400	0.001058570781607300	0.001058570781607300	0.001058570781607300	0.000416795792441400	272.600000000000022737
0.000413518126023000	0.000413518126023000	0.001039664669608100	0.001039664669608100	0.001039664669608100	0.000413518126023000	272.899999999999977263
0.000410261986428200	0.000410261986428200	0.001020143630449900	0.001020143630449900	0.001020143630449900	0.000410261986428200	273.199999999999988631
0.000407027255720600	0.000407027255720600	0.001000046389331100	0.001000046389331100	0.001000046389331100	0.000407027255720600	273.500000000000000000
0.000403813816687000	0.000403813816687000	0.000979366296935100	0.000979366296935100	0.000979366296935100	0.000403813816687000	273.800000000000011369
0.000400619934888000	0.000400619934888000	0.000958085686161100	0.000958085686161100	0.000958085686161100	0.000400619934888000	274.100000000000022737
0.000397450348373800	0.000397450348373800	0.000936184291335400	0.000936184291335400	0.000936184291335400	0.000397450348373800	274.399999999999977263
0.000394300088237500	0.000394300088237500	0.000913637723892900	0.000913637723892900	0.000913637723892900	0.000394300088237500	274.699999999999988631
0.000391170658051900	0.000391170658051900	0.000890415241083400	0.000890415241083400	0.000890415241083400	0.000391170658051900	275.000000000000000000
0.000388061944143700	0.000388061944143700	0.000866484591605800	0.000866484591605800	0.000866484591605800	0.000388061944143700	275.300000000000011369
0.000384972233152600	0.000384972233152600	0.000841808165924300	0.000841808165924300	0.000841808165924300	0.000384972233152600	275.600000000000022737
0.000381904617025800	0.000381904617025800	0.000816345980846700	0.000816345980846700	0.000816345980846700	0.000381904617025800	275.899999999999977263
0.000378857380284900	0.000378857380284900	0.000790056394793200	0.000790056394793200	0.000790056394793200	0.000378857380284900	276.199999999999988631
0.000375828822021700	0.000375828822021700	0.000762893809182100	0.000762893809182100	0.000762893809182100	0.000375828822021700	276.500000000000000000
0.000372822015383100	0.000372822015383100	0.000734833969348800	0.000734833969348800	0.000734833969348800	0.000372822015383100	276.800000000000011369
0.000369730772698300	0.000369730772698300	0.000705796019190900	0.000705796019190900	0.000705796019190900	0.000369730772698300	277.100000000000022737
0.000366547764269700	0.000366547764269700	0.000675609445883600	0.000675609445883600	0.000675609445883600	0.000366547764269700	277.399999999999977263
0.000363385521204300	0.000363385521204300	0.000644169786547800	0.000644169786547800	0.000644169786547800	0.000363385521204300	277.699999999999988631
0.000360245504230100	0.000360245504230100	0.000611420616457000	0.000611420616457000	0.000611420616457000	0.000360245504230100	278.000000000000000000
0.000357126022239600	0.000357126022239600	0.000577264861818400	0.000577264861818400	0.000577264861818400	0.000357126022239600	278.300000000000011369
0.000354028530575300	0.000354028530575300	0.000541585521109900	0.000541585521109900	0.000541585521109900	0.000354028530575300	278.600000000000022737
0.000350951346313600	0.000350951346313600	0.000504245498247900	0.000504245498247900	0.000504245498247900	0.000350951346313600	278.899999999999977263
0.000347892800684400	0.000347892800684400	0.000465079851042300	0.000465079851042300	0.000465079851042300	0.000347892800684400	279.199999999999988631
0.000344855907049000	0.000344855907049000	0.000423889213802200	0.000423889213802200	0.000423889213802200	0.000344855907049000	279.500000000000000000
0.000341840547287900	0.000341840547287900	0.000380407584171000	0.000380407584171000	0.000380407584171000	0.000341840547287900	279.800000000000011369
0.000338843505253200	0.000338843505253200	0.000333863359237000	0.000333863359237000	0.000333863359237000	0.000338843505253200	280.100000000000022737
0.000338638310951200	0.000338638310951200	0.000286510163359500	0.000286510163359500	0.000286510163359500	0.000338638310951200	280.399999999999977263
0.000333087575444100	0.000333087575444100	0.000236188388886400	0.000236188388886400	0.000236188388886400	0.000333087575444100	280.699999999999988631
0.000329784282096000	0.000329784282096000	0.000180184728608700	0.000180184728608700	0.000180184728608700	0.000329784282096000	281.000000000000000000
0.000326916764626800	0.000326916764626800	0.000120462719355200	0.000120462719355200	0.000120462719355200	0.000326916764626800	281.300000000000011369
0.000323355573573200	0.000323355573573200	0.000054785900476711	0.000054785900476711	0.000054785900476711	0.000323355573573200	281.600000000000022737
0.000324281483615400	0.000324281483615400	-0.000015493025354450	-0.000015493025354450	-0.000015493025354450	0.000324281483615400	281.899999999999977263
0.000323064245013000	0.000323064245013000	-0.000089734402128211	-0.000089734402128211	-0.000089734402128211	0.000323064245013000	282.199999999999988631
0.000319312339917300	0.000319312339917300	-0.000173156271048200	-0.000173156271048200	-0.000173156271048200	0.000319312339917300	282.500000000000000000
0.000316750523408200	0.000316750523408200	-0.000268301665540600	-0.000268301665540600	-0.000268301665540600	0.000316750523408200	282.800000000000011369
0.000314902067032600	0.000314902067032600	-0.000338914689614000	-0.000338914689614000	-0.000338914689614000	0.000314902067032600	283.000000000000000000
0.000314731186412100	0.000314731186412100	-0.000343281831267700	-0.000343281831267700	-0.000343281831267700	0.000314731186412100	283.012000000000000455
0.000314530795590400	0.000314530795590400	-0.000348027721269800	-0.000348027721269800	-0.000348027721269800	0.000314530795590400	283.024999999999977263
0.000314304644929000	0.000314304644929000	-0.000352689782396300	-0.000352689782396300	-0.000352689782396300	0.000314304644929000	283.038000000000010914
0.000313787925736200	0.000313787925736200	-0.000356980569074600	-0.000356980569074600	-0.000356980569074600	0.000313787925736200	283.050000000000011369
0.000312923179851600	0.000312923179851600	-0.000361928339096200	-0.000361928339096200	-0.000361928339096200	0.000312923179851600	283.062999999999988177
0.000312069898124300	0.000312069898124300	-0.000366910107286400	-0.000366910107286400	-0.000366910107286400	0.000312069898124300	283.074999999999988631
0.000311379062572300	0.000311379062572300	-0.000372306304771500	-0.000372306304771500	-0.000372306304771500	0.000311379062572300	283.086999999999989086
0.000311057741498900	0.000311057741498900	-0.000378523834846700	-0.000378523834846700	-0.000378523834846700	0.000311057741498900	283.100000000000022737
0.000311566041009800	0.000311566041009800	-0.000384806324571900	-0.000384806324571900	-0.000384806324571900	0.000311566041009800	283.112999999999999545
0.000313092465012100	0.000313092465012100	-0.000389524566961000	-0.000389524566961000	-0.000389524566961000	0.000313092465012100	283.125000000000000000
0.000312877903816400	0.000312877903816400	-0.000393699574975300	-0.000393699574975300	-0.000393699574975300	0.000312877903816400	283.137000000000000455
0.000312735461836100	0.000312735461836100	-0.000398845567645700	-0.000398845567645700	-0.000398845567645700	0.000312735461836100	283.149999999999977263
0.000313053918666700	0.000313053918666700	-0.000403374401873200	-0.000403374401873200	-0.000403374401873200	0.000313053918666700	283.163000000000010914
0.000310891477709500	0.000310891477709500	-0.000408407276987700	-0.000408407276987700	-0.000408407276987700	0.000310891477709500	283.175000000000011369
0.000310953880767100	0.000310953880767100	-0.000415072634161200	-0.000415072634161200	-0.000415072634161200	0.000310953880767100	283.187999999999988177
0.000311141234075100	0.000311141234075100	-0.000420869899918900	-0.000420869899918900	-0.000420869899918900	0.000311141234075100	283.199999999999988631
0.000312019626278400	0.000312019626278400	-0.000426265934557200	-0.000426265934557200	-0.000426265934557200	0.000312019626278400	283.211999999999989086
0.000312513785946400	0.000312513785946400	-0.000431589998033200	-0.000431589998033200	-0.000431589998033200	0.000312513785946400	283.225000000000022737
0.000312968457597700	0.000312968457597700	-0.000436527394225000	-0.000436527394225000	-0.000436527394225000	0.000312968457597700	283.237999999999999545
0.000312226812111500	0.000312226812111500	-0.000441313556472300	-0.000441313556472300	-0.000441313556472300	0.000312226812111500	283.250000000000000000
0.000312042801342600	0.000312042801342600	-0.000446499228511600	-0.000446499228511600	-0.000446499228511600	0.000312042801342600	283.262000000000000455
0.000311202210436600	0.000311202210436600	-0.000452473160969700	-0.000452473160969700	-0.000452473160969700	0.000311202210436600	283.274999999999977263
0.000311066105782900	0.000311066105782900	-0.000459123480414000	-0.000459123480414000	-0.000459123480414000	0.000311066105782900	283.288000000000010914
0.000312087834401800	0.000312087834401800	-0.000464552503839800	-0.000464552503839800	-0.000464552503839800	0.000312087834401800	283.300000000000011369
0.000311347413241000	0.000311347413241000	-0.000470480491374100	-0.000470480491374100	-0.000470480491374100	0.000311347413241000	283.312999999999988177
0.000312150876258500	0.000312150876258500	-0.000476079983174300	-0.000476079983174300	-0.000476079983174300	0.000312150876258500	283.324999999999988631
0.000311377949667300	0.000311377949667300	-0.000481949535019200	-0.000481949535019200	-0.000481949535019200	0.000311377949667300	283.336999999999989086
0.000312839186397400	0.000312839186397400	-0.000488394670028600	-0.000488394670028600	-0.000488394670028600	0.000312839186397400	283.350000000000022737
0.000313470540032200	0.000313470540032200	-0.000493699780127900	-0.000493699780127900	-0.000493699780127900	0.000313470540032200	283.362999999999999545
0.000313269908691900	0.000313269908691900	-0.000498816746652700	-0.000498816746652700	-0.000498816746652700	0.000313269908691900	283.375000000000000000
0.000313606651376300	0.000313606651376300	-0.000503931733446500	-0.000503931733446500	-0.000503931733446500	0.000313606651376300	283.387000000000000455
0.000313202533223500	0.000313202533223500	-0.000508918481229500	-0.000508918481229500	-0.000508918481229500	0.000313202533223500	283.399999999999977263
0.000310561742726900	0.000310561742726900	-0.000515826206771800	-0.000515826206771800	-0.000515826206771800	0.000310561742726900	283.413000000000010914
0.000312218158521300	0.000312218158521300	-0.000522135852203800	-0.000522135852203800	-0.000522135852203800	0.000312218158521300	283.425000000000011369
0.000310063624285500	0.000310063624285500	-0.000529044704650000	-0.000529044704650000	-0.000529044704650000	0.000310063624285500	283.437999999999988177
0.000312022380624200	0.000312022380624200	-0.000535848750280900	-0.000535848750280900	-0.000535848750280900	0.000312022380624200	283.449999999999988631
0.000312318197164600	0.000312318197164600	-0.000540745590692200	-0.000540745590692200	-0.000540745590692200	0.000312318197164600	283.461999999999989086
0.000310592305795600	0.000310592305795600	-0.000547193174402500	-0.000547193174402500	-0.000547193174402500	0.000310592305795600	283.475000000000022737
0.000310040475264200	0.000310040475264200	-0.000555472984976800	-0.000555472984976800	-0.000555472984976800	0.000310040475264200	283.487999999999999545
0.000312350934425900	0.000312350934425900	-0.000561803752520500	-0.000561803752520500	-0.000561803752520500	0.000312350934425900	283.500000000000000000
0.000311690838881500	0.000311690838881500	-0.000566893001054300	-0.000566893001054300	-0.000566893001054300	0.000311690838881500	283.512000000000000455
0.000309920243744000	0.000309920243744000	-0.000574736179269200	-0.000574736179269200	-0.000574736179269200	0.000309920243744000	283.524999999999977263
0.000311825705574300	0.000311825705574300	-0.000582497340967600	-0.000582497340967600	-0.000582497340967600	0.000311825705574300	283.538000000000010914
0.000311735813155700	0.000311735813155700	-0.000588532953461700	-0.000588532953461700	-0.000588532953461700	0.000311735813155700	283.550000000000011369
0.000311835730126500	0.000311835730126500	-0.000595261536945000	-0.000595261536945000	-0.000595261536945000	0.000311835730126500	283.562999999999988177
0.000309986312152500	0.000309986312152500	-0.000603196499705800	-0.000603196499705800	-0.000603196499705800	0.000309986312152500	283.574999999999988631
0.000313032963834300	0.000313032963834300	-0.000610865179953300	-0.000610865179953300	-0.000610865179953300	0.000313032963834300	283.586999999999989086
0.000313773550545800	0.000313773550545800	-0.000616670577839600	-0.000616670577839600	-0.000616670577839600	0.000313773550545800	283.600000000000022737
0.000312529760768700	0.000312529760768700	-0.000623589072565300	-0.000623589072565300	-0.000623589072565300	0.000312529760768700	283.612999999999999545
0.000312303850525100	0.000312303850525100	-0.000631410625399800	-0.000631410625399800	-0.000631410625399800	0.000312303850525100	283.625000000000000000
0.000313924382734200	0.000313924382734200	-0.000638333217360900	-0.000638333217360900	-0.000638333217360900	0.000313924382734200	283.637000000000000455
0.000313455956407200	0.000313455956407200	-0.000645195137397100	-0.000645195137397100	-0.000645195137397100	0.000313455956407200	283.649999999999977263
0.000312984593243600	0.000312984593243600	-0.000652956464798500	-0.000652956464798500	-0.000652956464798500	0.000312984593243600	283.663000000000010914
0.000312414310619400	0.000312414310619400	-0.000660973435930700	-0.000660973435930700	-0.000660973435930700	0.000312414310619400	283.675000000000011369
0.000313731468771300	0.000313731468771300	-0.000669175607132900	-0.000669175607132900	-0.000669175607132900	0.000313731468771300	283.687999999999988177
0.000313010191235200	0.000313010191235200	-0.000676603112085800	-0.000676603112085800	-0.000676603112085800	0.000313010191235200	283.699999999999988631
0.000313261584888200	0.000313261584888200	-0.000684959218027000	-0.000684959218027000	-0.000684959218027000	0.000313261584888200	283.711999999999989086
0.000314120778195000	0.000314120778195000	-0.000693747855003700	-0.000693747855003700	-0.000693747855003700	0.000314120778195000	283.725000000000022737
0.000314703502035000	0.000314703502035000	-0.000702536474600400	-0.000702536474600400	-0.000702536474600400	0.000314703502035000	283.737999999999999545
0.000315902815137500	0.000315902815137500	-0.000710584067597700	-0.000710584067597700	-0.000710584067597700	0.000315902815137500	283.750000000000000000
0.000316855853074800	0.000316855853074800	-0.000718355079214600	-0.000718355079214600	-0.000718355079214600	0.000316855853074800	283.762000000000000455
0.000318131031489400	0.000318131031489400	-0.000726482130456700	-0.000726482130456700	-0.000726482130456700	0.000318131031489400	283.774999999999977263
0.000318919960199100	0.000318919960199100	-0.000733995781633400	-0.000733995781633400	-0.000733995781633400	0.000318919960199100	283.788000000000010914
0.000318050837745200	0.000318050837745200	-0.000741610002397500	-0.000741610002397500	-0.000741610002397500	0.000318050837745200	283.800000000000011369
0.000318536303836900	0.000318536303836900	-0.000750295275919500	-0.000750295275919500	-0.000750295275919500	0.000318536303836900	283.812999999999988177
0.000317708106713500	0.000317708106713500	-0.000758253175585100	-0.000758253175585100	-0.000758253175585100	0.000317708106713500	283.824999999999988631
0.000316523961934900	0.000316523961934900	-0.000767659651243400	-0.000767659651243400	-0.000767659651243400	0.000316523961934900	283.836999999999989086
0.000317285530216300	0.000317285530216300	-0.000778206475033900	-0.000778206475033900	-0.000778206475033900	0.000317285530216300	283.850000000000022737
0.000317636627979700	0.000317636627979700	-0.000788201651925800	-0.000788201651925800	-0.000788201651925800	0.000317636627979700	283.862999999999999545
0.000317282443263100	0.000317282443263100	-0.000798424763631700	-0.000798424763631700	-0.000798424763631700	0.000317282443263100	283.875000000000000000
0.000319325021815600	0.000319325021815600	-0.000808484879945800	-0.000808484879945800	-0.000808484879945800	0.000319325021815600	283.887000000000000455
0.000319813081143100	0.000319813081143100	-0.000819047684634500	-0.000819047684634500	-0.000819047684634500	0.000319813081143100	283.899999999999977263
0.000321908613682700	0.000321908613682700	-0.000829684061932400	-0.000829684061932400	-0.000829684061932400	0.000321908613682700	283.913000000000010914
0.000322843447710500	0.000322843447710500	-0.000838972324781100	-0.000838972324781100	-0.000838972324781100	0.000322843447710500	283.925000000000011369
0.000323380806674700	0.000323380806674700	-0.000849989208537900	-0.000849989208537900	-0.000849989208537900	0.000323380806674700	283.937999999999988177
0.000325489801402300	0.000325489801402300	-0.000859961001071100	-0.000859961001071100	-0.000859961001071100	0.000325489801402300	283.949999999999988631
0.000326203988671600	0.000326203988671600	-0.000869260195340200	-0.000869260195340200	-0.000869260195340200	0.000326203988671600	283.961999999999989086
0.000325652571130000	0.000325652571130000	-0.000881176389833300	-0.000881176389833300	-0.000881176389833300	0.000325652571130000	283.975000000000022737
0.000328492537087500	0.000328492537087500	-0.000892980239268500	-0.000892980239268500	-0.000892980239268500	0.000328492537087500	283.987999999999999545
0.000328134720668800	0.000328134720668800	-0.000904094688096400	-0.000904094688096400	-0.000904094688096400	0.000328134720668800	284.000000000000000000
0.000331241516469300	0.000331241516469300	-0.000915308499611300	-0.000915308499611300	-0.000915308499611300	0.000331241516469300	284.012000000000000455
0.000331363386211400	0.000331363386211400	-0.000927064342898600	-0.000927064342898600	-0.000927064342898600	0.000331363386211400	284.024999999999977263
0.000332506779390400	0.000332506779390400	-0.000940943129409700	-0.000940943129409700	-0.000940943129409700	0.000332506779390400	284.038000000000010914
0.000336355114528700	0.000336355114528700	-0.000952764053979400	-0.000952764053979400	-0.000952764053979400	0.000336355114528700	284.050000000000011369
0.000337527975742900	0.000337527975742900	-0.000964870816317100	-0.000964870816317100	-0.000964870816317100	0.000337527975742900	284.062999999999988177
0.000339273898543200	0.000339273898543200	-0.000977132231283500	-0.000977132231283500	-0.000977132231283500	0.000339273898543200	284.074999999999988631
