beta_para	beta_perp	delta_para	delta_perp	delta	beta	energy
0.000089236146593717	0.000089236146593717	0.000437294446625800	0.000437294446625800	0.000437294446625800	0.000089236146593717	671.000000000000000000
0.000089233859519982	0.000089233859519982	0.000437263181075300	0.000437263181075300	0.000437263181075300	0.000089233859519982	671.009999999999990905
0.000089231620660862	0.000089231620660862	0.000437232974975500	0.000437232974975500	0.000437232974975500	0.000089231620660862	671.019999999999981810
0.000089229333779080	0.000089229333779080	0.000437203169066300	0.000437203169066300	0.000437203169066300	0.000089229333779080	671.029999999999972715
0.000089227071958028	0.000089227071958028	0.000437173601800300	0.000437173601800300	0.000437173601800300	0.000089227071958028	671.039999999999963620
0.000089224810953677	0.000089224810953677	0.000437144234657400	0.000437144234657400	0.000437144234657400	0.000089224810953677	671.049999999999954525
0.000089222524360424	0.000089222524360424	0.000437115005525800	0.000437115005525800	0.000437115005525800	0.000089222524360424	671.059999999999945430
0.000089220263547119	0.000089220263547119	0.000437085888098600	0.000437085888098600	0.000437085888098600	0.000089220263547119	671.070000000000050022
0.000089218002107501	0.000089218002107501	0.000437056882348600	0.000437056882348600	0.000437056882348600	0.000089218002107501	671.080000000000040927
0.000089215741484476	0.000089215741484476	0.000437027974399200	0.000437027974399200	0.000437027974399200	0.000089215741484476	671.090000000000031832
0.000089213455275588	0.000089213455275588	0.000436999134908700	0.000436999134908700	0.000436999134908700	0.000089213455275588	671.100000000000022737
0.000089211194843565	0.000089211194843565	0.000436970355161600	0.000436970355161600	0.000436970355161600	0.000089211194843565	671.110000000000013642
0.000089208933785292	0.000089208933785292	0.000436941646391600	0.000436941646391600	0.000436941646391600	0.000089208933785292	671.120000000000004547
0.000089206673543504	0.000089206673543504	0.000436913002019700	0.000436913002019700	0.000436913002019700	0.000089206673543504	671.129999999999995453
0.000089204387718893	0.000089204387718893	0.000436884393643500	0.000436884393643500	0.000436884393643500	0.000089204387718893	671.139999999999986358
0.000089202150090186	0.000089202150090186	0.000436855832947500	0.000436855832947500	0.000436855832947500	0.000089202150090186	671.149999999999977263
0.000089199889412502	0.000089199889412502	0.000436827334530200	0.000436827334530200	0.000436827334530200	0.000089199889412502	671.159999999999968168
0.000089197629551196	0.000089197629551196	0.000436798878469100	0.000436798878469100	0.000436798878469100	0.000089197629551196	671.169999999999959073
0.000089195344110105	0.000089195344110105	0.000436770443324300	0.000436770443324300	0.000436770443324300	0.000089195344110105	671.179999999999949978
0.000089193109392600	0.000089193109392600	0.000436742049953700	0.000436742049953700	0.000436742049953700	0.000089193109392600	671.190000000000054570
0.000089190824143198	0.000089190824143198	0.000436713695535900	0.000436713695535900	0.000436713695535900	0.000089190824143198	671.200000000000045475
0.000089188564662953	0.000089188564662953	0.000436685349736800	0.000436685349736800	0.000436685349736800	0.000089188564662953	671.210000000000036380
0.000089186330228421	0.000089186330228421	0.000436657056406800	0.000436657056406800	0.000436657056406800	0.000089186330228421	671.220000000000027285
0.000089184045266500	0.000089184045266500	0.000436628785527500	0.000436628785527500	0.000436628785527500	0.000089184045266500	671.230000000000018190
0.000089181808487535	0.000089181808487535	0.000436600533200000	0.000436600533200000	0.000436600533200000	0.000089181808487535	671.240000000000009095
0.000089179548665751	0.000089179548665751	0.000436572320961600	0.000436572320961600	0.000436572320961600	0.000089179548665751	671.250000000000000000
0.000089177289660101	0.000089177289660101	0.000436544126459700	0.000436544126459700	0.000436544126459700	0.000089177289660101	671.259999999999990905
0.000089175030749479	0.000089175030749479	0.000436515953253200	0.000436515953253200	0.000436515953253200	0.000089175030749479	671.269999999999981810
0.000089172771212864	0.000089172771212864	0.000436487799696400	0.000436487799696400	0.000436487799696400	0.000089172771212864	671.279999999999972715
0.000089170512492302	0.000089170512492302	0.000436459664064300	0.000436459664064300	0.000436459664064300	0.000089170512492302	671.289999999999963620
0.000089168253866751	0.000089168253866751	0.000436431540971700	0.000436431540971700	0.000436431540971700	0.000089168253866751	671.299999999999954525
0.000089166017026690	0.000089166017026690	0.000436403444152000	0.000436403444152000	0.000436403444152000	0.000089166017026690	671.309999999999945430
0.000089163758590499	0.000089163758590499	0.000436375367418700	0.000436375367418700	0.000436375367418700	0.000089163758590499	671.320000000000050022
0.000089161525191784	0.000089161525191784	0.000436347312676300	0.000436347312676300	0.000436347312676300	0.000089161525191784	671.330000000000040927
0.000089159266944834	0.000089159266944834	0.000436319288448900	0.000436319288448900	0.000436319288448900	0.000089159266944834	671.340000000000031832
0.000089156983131006	0.000089156983131006	0.000436291252699800	0.000436291252699800	0.000436291252699800	0.000089156983131006	671.350000000000022737
0.000089154750015035	0.000089154750015035	0.000436263227415300	0.000436263227415300	0.000436263227415300	0.000089154750015035	671.360000000000013642
0.000089152492053041	0.000089152492053041	0.000436235226129000	0.000436235226129000	0.000436235226129000	0.000089152492053041	671.370000000000004547
0.000089150256592777	0.000089150256592777	0.000436207240909200	0.000436207240909200	0.000436207240909200	0.000089150256592777	671.379999999999995453
0.000089147998099265	0.000089147998099265	0.000436179274379700	0.000436179274379700	0.000436179274379700	0.000089147998099265	671.389999999999986358
0.000089145740421510	0.000089145740421510	0.000436151304542300	0.000436151304542300	0.000436151304542300	0.000089145740421510	671.399999999999977263
0.000089143507775245	0.000089143507775245	0.000436123352801900	0.000436123352801900	0.000436123352801900	0.000089143507775245	671.409999999999968168
0.000089141250286644	0.000089141250286644	0.000436095409047600	0.000436095409047600	0.000436095409047600	0.000089141250286644	671.419999999999959073
0.000089139040231461	0.000089139040231461	0.000436067489400400	0.000436067489400400	0.000436067489400400	0.000089139040231461	671.429999999999949978
0.000089136782931324	0.000089136782931324	0.000436039603348000	0.000436039603348000	0.000436039603348000	0.000089136782931324	671.440000000000054570
0.000089134500071899	0.000089134500071899	0.000436011692932300	0.000436011692932300	0.000436011692932300	0.000089134500071899	671.450000000000045475
0.000089132267895203	0.000089132267895203	0.000435983784436500	0.000435983784436500	0.000435983784436500	0.000089132267895203	671.460000000000036380
0.000089130010879859	0.000089130010879859	0.000435955886719200	0.000435955886719200	0.000435955886719200	0.000089130010879859	671.470000000000027285
0.000089127801290855	0.000089127801290855	0.000435928009428800	0.000435928009428800	0.000435928009428800	0.000089127801290855	671.480000000000018190
0.000089125544463921	0.000089125544463921	0.000435900151144500	0.000435900151144500	0.000435900151144500	0.000089125544463921	671.490000000000009095
0.000089123312661743	0.000089123312661743	0.000435872294830600	0.000435872294830600	0.000435872294830600	0.000089123312661743	671.500000000000000000
0.000089121056023864	0.000089121056023864	0.000435844444067800	0.000435844444067800	0.000435844444067800	0.000089121056023864	671.509999999999990905
0.000089118824409245	0.000089118824409245	0.000435816594169000	0.000435816594169000	0.000435816594169000	0.000089118824409245	671.519999999999981810
0.000089116590357154	0.000089116590357154	0.000435788760880000	0.000435788760880000	0.000435788760880000	0.000089116590357154	671.529999999999972715
0.000089114358929406	0.000089114358929406	0.000435760943663900	0.000435760943663900	0.000435760943663900	0.000089114358929406	671.539999999999963620
0.000089112102668906	0.000089112102668906	0.000435733125464100	0.000435733125464100	0.000435733125464100	0.000089112102668906	671.549999999999954525
0.000089109871428674	0.000089109871428674	0.000435705305902900	0.000435705305902900	0.000435705305902900	0.000089109871428674	671.559999999999945430
0.000089107637751250	0.000089107637751250	0.000435677501257400	0.000435677501257400	0.000435677501257400	0.000089107637751250	671.570000000000050022
0.000089105406697847	0.000089105406697847	0.000435649711193100	0.000435649711193100	0.000435649711193100	0.000089105406697847	671.580000000000040927
0.000089103150814639	0.000089103150814639	0.000435621918760300	0.000435621918760300	0.000435621918760300	0.000089103150814639	671.590000000000031832
0.000089100919948708	0.000089100919948708	0.000435594123640800	0.000435594123640800	0.000435594123640800	0.000089100919948708	671.600000000000022737
0.000089098686645865	0.000089098686645865	0.000435566342139000	0.000435566342139000	0.000435566342139000	0.000089098686645865	671.610000000000013642
0.000089096455966720	0.000089096455966720	0.000435538573922900	0.000435538573922900	0.000435538573922900	0.000089096455966720	671.620000000000004547
0.000089094200460717	0.000089094200460717	0.000435510802012800	0.000435510802012800	0.000435510802012800	0.000089094200460717	671.629999999999995453
0.000089091969969001	0.000089091969969001	0.000435483026003900	0.000435483026003900	0.000435483026003900	0.000089091969969001	671.639999999999986358
0.000089089737040653	0.000089089737040653	0.000435455262006100	0.000435455262006100	0.000435455262006100	0.000089089737040653	671.649999999999977263
0.000089087506735679	0.000089087506735679	0.000435427509238200	0.000435427509238200	0.000435427509238200	0.000089087506735679	671.659999999999968168
0.000089085251606795	0.000089085251606795	0.000435399749404200	0.000435399749404200	0.000435399749404200	0.000089085251606795	671.669999999999959073
0.000089083021489208	0.000089083021489208	0.000435371971769100	0.000435371971769100	0.000435371971769100	0.000089083021489208	671.679999999999949978
0.000089080839486908	0.000089080839486908	0.000435344233480800	0.000435344233480800	0.000435344233480800	0.000089080839486908	671.690000000000054570
0.000089078584639505	0.000089078584639505	0.000435316511000600	0.000435316511000600	0.000435316511000600	0.000089078584639505	671.700000000000045475
0.000089076354801157	0.000089076354801157	0.000435288769378400	0.000435288769378400	0.000435288769378400	0.000089076354801157	671.710000000000036380
0.000089074122526666	0.000089074122526666	0.000435261034374200	0.000435261034374200	0.000435261034374200	0.000089074122526666	671.720000000000027285
0.000089071892874985	0.000089071892874985	0.000435233301355300	0.000435233301355300	0.000435233301355300	0.000089071892874985	671.730000000000018190
0.000089069664036620	0.000089069664036620	0.000435205571624600	0.000435205571624600	0.000435205571624600	0.000089069664036620	671.740000000000009095
0.000089067434571487	0.000089067434571487	0.000435177840104800	0.000435177840104800	0.000435177840104800	0.000089067434571487	671.750000000000000000
0.000089065227581050	0.000089065227581050	0.000435150127061700	0.000435150127061700	0.000435150127061700	0.000089065227581050	671.759999999999990905
0.000089062973391981	0.000089062973391981	0.000435122413768200	0.000435122413768200	0.000435122413768200	0.000089062973391981	671.769999999999981810
0.000089060744206738	0.000089060744206738	0.000435094678841800	0.000435094678841800	0.000435094678841800	0.000089060744206738	671.779999999999972715
0.000089058538214098	0.000089058538214098	0.000435066960977700	0.000435066960977700	0.000435066960977700	0.000089058538214098	671.789999999999963620
0.000089056309214683	0.000089056309214683	0.000435039254471300	0.000435039254471300	0.000435039254471300	0.000089056309214683	671.799999999999954525
0.000089054080308518	0.000089054080308518	0.000435011536917300	0.000435011536917300	0.000435011536917300	0.000089054080308518	671.809999999999945430
0.000089051874592877	0.000089051874592877	0.000434983829171200	0.000434983829171200	0.000434983829171200	0.000089051874592877	671.820000000000050022
0.000089049645872509	0.000089049645872509	0.000434956130867000	0.000434956130867000	0.000434956130867000	0.000089049645872509	671.830000000000040927
0.000089047417245374	0.000089047417245374	0.000434928420325100	0.000434928420325100	0.000434928420325100	0.000089047417245374	671.840000000000031832
0.000089045211806685	0.000089045211806685	0.000434900718636400	0.000434900718636400	0.000434900718636400	0.000089045211806685	671.850000000000022737
0.000089042983365315	0.000089042983365315	0.000434873025496200	0.000434873025496200	0.000434873025496200	0.000089042983365315	671.860000000000013642
0.000089040755017163	0.000089040755017163	0.000434845319136000	0.000434845319136000	0.000434845319136000	0.000089040755017163	671.870000000000004547
0.000089038549855377	0.000089038549855377	0.000434817620174000	0.000434817620174000	0.000434817620174000	0.000089038549855377	671.879999999999995453
0.000089036321692957	0.000089036321692957	0.000434789923540100	0.000434789923540100	0.000434789923540100	0.000089036321692957	671.889999999999986358
0.000089034119243605	0.000089034119243605	0.000434762231308800	0.000434762231308800	0.000434762231308800	0.000089034119243605	671.899999999999977263
0.000089031888738810	0.000089031888738810	0.000434734545643400	0.000434734545643400	0.000434734545643400	0.000089031888738810	671.909999999999968168
0.000089029660855292	0.000089029660855292	0.000434706842880500	0.000434706842880500	0.000434706842880500	0.000089029660855292	671.919999999999959073
0.000089027458682538	0.000089027458682538	0.000434679148256200	0.000434679148256200	0.000434679148256200	0.000089027458682538	671.929999999999949978
0.000089025228456839	0.000089025228456839	0.000434651453771300	0.000434651453771300	0.000434651453771300	0.000089025228456839	671.940000000000054570
0.000089023026468228	0.000089023026468228	0.000434623754375200	0.000434623754375200	0.000434623754375200	0.000089023026468228	671.950000000000045475
0.000089020821324071	0.000089020821324071	0.000434596072628500	0.000434596072628500	0.000434596072628500	0.000089020821324071	671.960000000000036380
0.000089018594623849	0.000089018594623849	0.000434568389229500	0.000434568389229500	0.000434568389229500	0.000089018594623849	671.970000000000027285
0.000089016367297229	0.000089016367297229	0.000434540683129200	0.000434540683129200	0.000434540683129200	0.000089016367297229	671.980000000000018190
0.000089014188042868	0.000089014188042868	0.000434512993193000	0.000434512993193000	0.000434512993193000	0.000089014188042868	671.990000000000009095
0.000089011960901122	0.000089011960901122	0.000434485319046800	0.000434485319046800	0.000434485319046800	0.000089011960901122	672.000000000000000000
0.000089009734571969	0.000089009734571969	0.000434457620946900	0.000434457620946900	0.000434457620946900	0.000089009734571969	672.009999999999990905
0.000089007529980588	0.000089007529980588	0.000434429918320900	0.000434429918320900	0.000434429918320900	0.000089007529980588	672.019999999999981810
0.000089005328727523	0.000089005328727523	0.000434402220225400	0.000434402220225400	0.000434402220225400	0.000089005328727523	672.029999999999972715
0.000089003149928834	0.000089003149928834	0.000434374549642500	0.000434374549642500	0.000434374549642500	0.000089003149928834	672.039999999999963620
0.000089000898360808	0.000089000898360808	0.000434346868586700	0.000434346868586700	0.000434346868586700	0.000089000898360808	672.049999999999954525
0.000088998697383373	0.000088998697383373	0.000434319161033300	0.000434319161033300	0.000434319161033300	0.000088998697383373	672.059999999999945430
0.000088996493251395	0.000088996493251395	0.000434291465036900	0.000434291465036900	0.000434291465036900	0.000088996493251395	672.070000000000050022
0.000088994292457225	0.000088994292457225	0.000434263766575200	0.000434263766575200	0.000434263766575200	0.000088994292457225	672.080000000000040927
0.000088992114114078	0.000088992114114078	0.000434236092792000	0.000434236092792000	0.000434236092792000	0.000088992114114078	672.090000000000031832
0.000088989863012407	0.000088989863012407	0.000434208401562300	0.000434208401562300	0.000434208401562300	0.000088989863012407	672.100000000000022737
0.000088987684851904	0.000088987684851904	0.000434180693022100	0.000434180693022100	0.000434180693022100	0.000088987684851904	672.110000000000013642
0.000088985484424180	0.000088985484424180	0.000434153012894000	0.000434153012894000	0.000434153012894000	0.000088985484424180	672.120000000000004547
0.000088983258485677	0.000088983258485677	0.000434125312106200	0.000434125312106200	0.000434125312106200	0.000088983258485677	672.129999999999995453
0.000088981080597940	0.000088981080597940	0.000434097614871500	0.000434097614871500	0.000434097614871500	0.000088981080597940	672.139999999999986358
0.000088978855563302	0.000088978855563302	0.000434069917445100	0.000434069917445100	0.000434069917445100	0.000088978855563302	672.149999999999977263
0.000088976677857395	0.000088976677857395	0.000434042218997600	0.000434042218997600	0.000434042218997600	0.000088976677857395	672.159999999999968168
0.000088974452288280	0.000088974452288280	0.000434014518012800	0.000434014518012800	0.000434014518012800	0.000088974452288280	672.169999999999959073
0.000088972274764202	0.000088972274764202	0.000433986809074800	0.000433986809074800	0.000433986809074800	0.000088972274764202	672.179999999999949978
0.000088970074977524	0.000088970074977524	0.000433959110929200	0.000433959110929200	0.000433959110929200	0.000088970074977524	672.190000000000054570
0.000088967897634494	0.000088967897634494	0.000433931428425200	0.000433931428425200	0.000433931428425200	0.000088967897634494	672.200000000000045475
0.000088965647556723	0.000088965647556723	0.000433903724329500	0.000433903724329500	0.000433903724329500	0.000088965647556723	672.210000000000036380
0.000088963470396221	0.000088963470396221	0.000433875998166700	0.000433875998166700	0.000433875998166700	0.000088963470396221	672.220000000000027285
0.000088961270975758	0.000088961270975758	0.000433848285848200	0.000433848285848200	0.000433848285848200	0.000088961270975758	672.230000000000018190
0.000088959093996262	0.000088959093996262	0.000433820576414500	0.000433820576414500	0.000433820576414500	0.000088959093996262	672.240000000000009095
0.000088956894758124	0.000088956894758124	0.000433792868539600	0.000433792868539600	0.000433792868539600	0.000088956894758124	672.250000000000000000
0.000088954717959612	0.000088954717959612	0.000433765162539700	0.000433765162539700	0.000433765162539700	0.000088954717959612	672.259999999999990905
0.000088952518903779	0.000088952518903779	0.000433737464277400	0.000433737464277400	0.000433737464277400	0.000088952518903779	672.269999999999981810
0.000088950316695321	0.000088950316695321	0.000433709760509900	0.000433709760509900	0.000433709760509900	0.000088950316695321	672.279999999999972715
0.000088948092951233	0.000088948092951233	0.000433682033199000	0.000433682033199000	0.000433682033199000	0.000088948092951233	672.289999999999963620
0.000088945916516130	0.000088945916516130	0.000433654300477100	0.000433654300477100	0.000433654300477100	0.000088945916516130	672.299999999999954525
0.000088943717826344	0.000088943717826344	0.000433626574447400	0.000433626574447400	0.000433626574447400	0.000088943717826344	672.309999999999945430
0.000088941541572164	0.000088941541572164	0.000433598848790800	0.000433598848790800	0.000433598848790800	0.000088941541572164	672.320000000000050022
