beta_para beta_perp delta_para delta_perp delta beta energy
0.00019363175686889857 0.00019363175686889857 -0.003685959467193603 -0.0036698450605227003 -0.0036752165294130015 0.00019363175686889857 265.0
0.00019363926652386361 0.00019363523464803418 -0.0036883439132742147 -0.003671962332985659 -0.003677422859748511 0.000193636578606644 265.0123898140817
0.00019367362302098861 0.00019365759386950752 -0.003690713069369086 -0.0036740653155740354 -0.0036796145668390526 0.00019366293692000123 265.0247796281634
0.00019370793614687448 0.00019367942595981878 -0.0036930662108544464 -0.0036761560866205327 -0.003681792794698504 0.00019368892935550403 265.03716944224504
0.0001937414371823983 0.00019370133957496405 -0.003695413850747067 -0.003678242312322345 -0.003683966158463919 0.0001937147054441088 265.04955925632675
0.00019377605659933548 0.0001937234710962999 -0.0036977585295998156 -0.0036803260113334084 -0.003686136850755544 0.00019374099959731177 265.06194907040845
0.0001938100994611877 0.00019374598451397078 -0.0037001014571543386 -0.003682408106566226 -0.0036883058900955973 0.00019376735616304306 265.07433888449015
0.00019384441968045863 0.00019376841603534065 -0.003702444254833794 -0.0036844892865385533 -0.0036904742759703 0.0001937937505837133 265.08672869857185
0.00019387916896889773 0.0001937904313840186 -0.0037047874515449457 -0.003686570720871545 -0.003692642964429345 0.0001938200105789783 265.0991185126535
0.0001939138067569117 0.00019381277301294987 -0.0037071320657578112 -0.0036886533386020206 -0.0036948129143206175 0.00019384645092760384 265.1115083267352
0.00019394774151786263 0.0001938351769589532 -0.003709482505167907 -0.0036907392624522077 -0.0036969870100241075 0.00019387269847858965 265.1238981408169
0.00019399354584844614 0.00019386452177245112 -0.0037118355982012825 -0.0036928267004375536 -0.00369916299969213 0.0001939075297977828 265.1362879548986
0.00019404478422044101 0.00019389750171022927 -0.003714183637607347 -0.0036949112206313252 -0.0037013353596233325 0.00019394659588029984 265.14867776898024
0.00019409539841111487 0.00019393052745479673 -0.0037165282285367574 -0.0036969933213637407 -0.00370350495708808 0.00019398548444023612 265.16106758306194
0.00019414724381592547 0.0001939637152599117 -0.0037188713047812097 -0.003699074531740422 -0.0037056734560873515 0.00019402489144524962 265.17345739714364
0.00019419854520411826 0.00019399729089555022 -0.00372121329527497 -0.0037011550216865304 -0.003707841112882677 0.00019406437566507292 265.18584721122534
0.0001942503935890104 0.0001940303843083195 -0.0037235548266120297 -0.003703235269380433 -0.0037100084551242984 0.00019410372073521646 265.19823702530704
0.00019430165001475358 0.00019406378093401655 -0.0037258962964035443 -0.003705315656640101 -0.003712175869894582 0.00019414307062759557 265.2106268393887
0.00019435350142641116 0.00019409704850339058 -0.003728238038631473 -0.003707396132436913 -0.0037143434345017663 0.00019418253281106411 265.2230166534704
0.00019440519381651566 0.0001941300372691448 -0.0037305798349095147 -0.003709477278855868 -0.0037165114642070834 0.0001942217561182684 265.2354064675521
0.00019445637079990556 0.00019416380004550317 -0.0037329225502768727 -0.003711558876446394 -0.0037186801010565536 0.00019426132363030394 265.2477962816338
0.00019450852239651076 0.00019419717375320826 -0.0037352660576181027 -0.0037136408499970183 -0.00372084925253738 0.0001943009566343091 265.2601860957155
0.0001945604113491498 0.00019423085900072384 -0.0037376101822329164 -0.003715723415076924 -0.0037230190041289218 0.0001943407097835325 265.2725759097971
0.00019461296107345388 0.0001942640229469056 -0.0037399549694395835 -0.0037178068727825027 -0.003725189571668196 0.000194380335655755 265.2849657238788
0.00019466500305867095 0.00019429791937016833 -0.003742300462430462 -0.0037198912784723644 -0.003727361006458397 0.0001944202805996692 265.2973555379605
0.00019471711229398006 0.00019433181972694654 -0.003744647242995159 -0.0037219762052512896 -0.00372953321783258 0.00019446025058262437 265.3097453520422
0.00019476961059369788 0.0001943654634982907 -0.003746995150132798 -0.003724062158033058 -0.0037317064887329716 0.00019450017919675976 265.3221351661239
0.00019482238931399926 0.0001943996655028129 -0.0037493438296328824 -0.00372614914208803 -0.0037338807046029807 0.000194540573439875 265.3345249802056
0.00019487448185112111 0.0001944341561253237 -0.0037516938175057523 -0.003728236622666457 -0.0037360556876128888 0.00019458093136725616 265.3469147942873
0.0001949270397006997 0.0001944680118623468 -0.003754045682107451 -0.00373032501768428 -0.003738231905825337 0.00019462102114179778 265.359304608369
0.0001949808455838041 0.00019450205576276294 -0.0037563984335254753 -0.003732414775742519 -0.0037404093283368383 0.00019466165236977666 265.3716944224507
0.00019503427187219562 0.00019453643884272337 -0.0037587516853442456 -0.003734505606154845 -0.003742587632551312 0.00019470238318588078 265.3840842365324
0.00019508699700175836 0.00019457104841822786 -0.0037611064943045484 -0.0037365971943536143 -0.003744766961003926 0.00019474303127940467 265.396474050614
0.00019514039109198546 0.00019460497595561875 -0.003763462789421955 -0.0037386901727788626 -0.0037469477116598934 0.000194783447667741 265.4088638646957
0.00019519328966779087 0.00019464012076697535 -0.003765820402804104 -0.0037407842623348453 -0.003749129642491265 0.00019482451040058051 265.4212536787774
0.00019524600798191918 0.0001946747169715774 -0.0037681803266228393 -0.0037428789413803997 -0.003751312736461213 0.000194865147308358 265.4336434928591
0.00019530074176756992 0.00019470880009080072 -0.0037705414371123212 -0.003744975248470094 -0.0037534973113508368 0.00019490611398305713 265.44603330694076
0.00019535468670070204 0.0001947437704312721 -0.0037729029343744765 -0.0037470729068589336 -0.003755682916030781 0.00019494740918774876 265.45842312102246
0.00019540749420530166 0.00019477857595085184 -0.003775266636078117 -0.003749171435784463 -0.0037578698358823478 0.0001949882153690018 265.47081293510416
0.00019546177519694455 0.00019481315900278024 -0.0037776322701021255 -0.0037512713002655104 -0.0037600582902110485 0.00019502936440083502 265.48320274918586
0.00019551588478947124 0.00019484787068516307 -0.003779998934773825 -0.003753372600351279 -0.0037622480451587944 0.00019507054205326579 265.49559256326756
0.00019556973810277628 0.0001948825620618888 -0.0037823671959728677 -0.0037554755242061614 -0.003764439414795064 0.00019511162074218463 265.5079823773492
0.00019562329523153415 0.00019491837865235343 -0.003784737816395636 -0.0037575794227846116 -0.003766632220654953 0.00019515335084541367 265.5203721914309
0.00019567892171429928 0.000194953450907497 -0.003787109426290255 -0.0037596840190434874 -0.0037688258214590765 0.00019519527450976442 265.5327620055126
0.0001957321036634179 0.00019498773427555738 -0.003789482716389045 -0.0037617907814719953 -0.003771021426444345 0.00019523585740484424 265.5451518195943
0.00019578766452395054 0.00019502385463476192 -0.0037918578962210627 -0.00376389894217079 -0.0037732185935208814 0.00019527845793115815 265.557541633676
0.00019584163217744961 0.00019505941230189478 -0.003794234206725094 -0.0037660074691928964 -0.003775416381703629 0.00019532015226041307 265.56993144775765
0.00019589583629435974 0.00019509370868119177 -0.0037966130792424966 -0.0037681180482018314 -0.0037776163918820534 0.00019536108455224773 265.58232126183935
0.00019595088831547212 0.00019512948897124196 -0.003798993781112862 -0.003770230526753844 -0.0037798182782068502 0.00019540328875265202 265.59471107592105
0.00019600619127367738 0.00019516530288039727 -0.003801375797149366 -0.0037723438330581156 -0.003782021154421866 0.00019544559901149062 265.60710089000276
0.00019606123167705165 0.00019520080545760052 -0.003803759320511565 -0.0037744584232054738 -0.003784225388974171 0.00019548761419741758 265.61949070408446
0.0001961158724632597 0.0001952360778105353 -0.0038061449981009717 -0.003776574776257821 -0.0037864315168722046 0.00019552934269477678 265.6318805181661
0.0001961713972872361 0.00019527183971623517 -0.0038085323129979963 -0.0037786928656166827 -0.0037886393480771204 0.00019557169223990216 265.6442703322478
0.00019622536119383416 0.00019530817170241872 -0.003810922175742819 -0.0037808120230990614 -0.0037908487406469807 0.00019561390153289052 265.6566601463295
0.0001962819774436529 0.00019534390215739952 -0.0038133142072390015 -0.0037829324535579665 -0.0037930597047849783 0.00019565659391948399 265.6690499604112
0.0001963381168844288 0.00019537981094151964 -0.00381570704407906 -0.0037850545032471895 -0.003795272016857813 0.0001956992462558227 265.68143977449284
0.00019639419939110754 0.00019541543545215925 -0.0038181014526658843 -0.0037871782865599533 -0.003797486008595264 0.00019574169009847533 265.69382958857454
0.00019644970094689942 0.00019545161388966 -0.0038204977259168396 -0.003789303851690482 -0.0037997018097659344 0.00019578430957540647 265.70621940265625
0.0001965050983686732 0.00019548827542149064 -0.0038228962305605087 -0.003791430600959274 -0.0038019191441596854 0.0001958272164038848 265.71860921673795
0.0001965603627424042 0.00019552463610902877 -0.0038252972212282853 -0.0037935585827016107 -0.0038041381288771692 0.0001958698783201539 265.73099903081965
0.00019661646749538804 0.00019556087559566816 -0.003827700627438482 -0.003795688160070799 -0.0038063589825266934 0.00019591273956224143 265.7433888449013
0.00019667384745391254 0.0001955970407188049 -0.0038301050109147894 -0.0037978195017859097 -0.003808581338162203 0.00019595597629717412 265.755778658983
0.00019672919461097825 0.0001956336663217789 -0.0038325113266104572 -0.0037999522649754215 -0.0038108052855204337 0.0001959988424181787 265.7681684730647
0.00019678592839765364 0.00019566950989611647 -0.003834920249467921 -0.0038020868397948835 -0.003813031309685896 0.00019604164939662888 265.7805582871464
0.00019684249450843482 0.00019570626609574545 -0.0038373308738231817 -0.003804223297528154 -0.0038152591562931634 0.00019608500889997522 265.7929481012281
0.00019689921265055054 0.00019574288167873146 -0.003839743777839491 -0.0038063612808915005 -0.003817488779874164 0.0001961283253360045 265.80533791530974
0.00019695710382916536 0.00019578011808210375 -0.0038421579451863074 -0.0038085007620042586 -0.003819719823064942 0.0001961724466644576 265.81772772939144
0.00019701312147446117 0.00019581724951639267 -0.0038445739690631375 -0.003810641390940647 -0.0038219522503148105 0.0001962158735024155 265.83011754347314
0.00019706974728180335 0.00019585376249527952 -0.003846992917373004 -0.003812783812920953 -0.0038241868477383034 0.00019625909075745413 265.84250735755484
0.00019712677907222963 0.00019589071660003267 -0.0038494141219165097 -0.003814928140940877 -0.0038264234679327544 0.00019630273742409833 265.85489717163654
0.00019718458731824326 0.00019592757237275397 -0.0038518370741007697 -0.0038170742449614046 -0.003828661854674526 0.00019634657735458373 265.8672869857182
0.0001972419926838682 0.00019596503088744317 -0.003854261737596698 -0.003819221985846286 -0.0038309019030964234 0.00019639068481958486 265.8796767997999
0.00019729925508020922 0.0001960023847009906 -0.003856688710505576 -0.0038213711592973007 -0.003833143676366726 0.00019643467482739679 265.8920666138816
0.00019735676791509622 0.00019603981878890152 -0.003859118040770742 -0.00382352186265812 -0.0038353872553623276 0.00019647880183096644 265.9044564279633
0.00019741472620319548 0.00019607677754507569 -0.003861549432656747 -0.003825674446240414 -0.003837632775045858 0.00019652276043111562 265.916846242045
0.00019747278394786086 0.00019611428088004112 -0.003863982703676768 -0.003827828908319587 -0.0038398801734386475 0.00019656711523598105 265.9292360561266
0.00019753069504092216 0.00019615162199356444 -0.003866418074683725 -0.0038299850593255897 -0.0038421293977783013 0.00019661131300935036 265.9416258702083
0.00019758875336680352 0.00019618915455543547 -0.0038688555960699005 -0.003832143191774895 -0.0038443806598732304 0.00019665568749255814 265.95401568429
0.0001976466172467564 0.00019622735786499576 -0.0038712953611476125 -0.003834302773640612 -0.0038466336361429455 0.00019670044432558266 265.9664054983717
0.00019770467609410566 0.00019626491881947716 -0.0038737374290616212 -0.003836464028400384 -0.0038488884952874633 0.00019674483791102 265.97879531245337
0.00019776249281915328 0.00019630318563568593 -0.0038761820480341523 -0.00383862697103049 -0.0038511453300317106 0.00019678962136350836 265.9911851265351
0.0001978210828343436 0.00019634073963957293 -0.00387862926782867 -0.0038407915782118765 -0.0038534041414174745 0.00019683418737116316 266.0035749406168
0.00019788064940370336 0.00019637853478166333 -0.003881077948913046 -0.0038429583327145985 -0.003855664871447414 0.00019687923965567666 266.0159647546985
0.00019793879797958696 0.00019641657499608448 -0.0038835287572902112 -0.003845126878781383 -0.0038579275049509926 0.00019692398265725198 266.0283545687802
0.00019799779556924364 0.00019645442976204863 -0.003885982320520011 -0.003847297537993575 -0.003860192465502387 0.00019696888503111364 266.0407443828618
0.00019805694320680146 0.00019649346215873192 -0.0038884378768577997 -0.003849469814252905 -0.0038624591684545367 0.00019701462250808842 266.0531341969435
0.0001981158516632155 0.00019653204040970178 -0.0038908958399211714 -0.0038516432254926715 -0.003864727430302171 0.00019705997749420634 266.0655240110252
0.0001981753683992657 0.00019657001731729855 -0.0038933560744220173 -0.00385381860206365 -0.0038669977595164394 0.00019710513434462095 266.0779138251069
0.00019823448037812385 0.0001966079065293556 -0.0038958186737476736 -0.003855996431874561 -0.003869270512498932 0.00019715009781227835 266.0903036391886
0.00019829435676440275 0.0001966465651971626 -0.003898283615511132 -0.0038581763246316875 -0.0038715454215915023 0.0001971958290529093 266.10269345327026
0.0001983540330332463 0.00019668542031773634 -0.003900750547123801 -0.0038603578058786516 -0.0038738220529603677 0.00019724162455623967 266.11508326735196
0.00019841333368310598 0.00019672425083969747 -0.0039032201956390104 -0.0038625409301173592 -0.003876100685291243 0.00019728727845416696 266.12747308143366
0.00019847356241764336 0.00019676266154341023 -0.0039056922819015235 -0.0038647261084577642 -0.003878381499605684 0.00019733296183482128 266.13986289551536
0.00019853367224103734 0.0001968013160488145 -0.003908166218635017 -0.003866913652606648 -0.003880664507949437 0.00019737876811288876 266.15225270959706
0.00019859296399166423 0.0001968407291749258 -0.003910642964175863 -0.0038691029508862496 -0.003882949621982787 0.00019742480744717195 266.1646425236787
0.00019865326664419218 0.0001968797934523352 -0.003913122420409503 -0.0038712939149210222 -0.0038852367500838494 0.0001974709511829542 266.1770323377604
0.00019871321979977183 0.00019691889610542736 -0.003915604244962616 -0.0038734869515035996 -0.0038875260493232717 0.00019751700400354218 266.1894221518421
0.0001987734479050527 0.00019695809230140763 -0.003918089057170712 -0.0038756819727309936 -0.0038898176675442333 0.00019756321083595597 266.2018119659238
0.00019883503445885405 0.00019699719554778578 -0.003920575835929877 -0.003877879101325839 -0.0038921113461938515 0.00019760980851814185 266.21420178000545
0.00019889561494759197 0.00019703660340465235 -0.003923064469032483 -0.0038800782797042085 -0.0038944070094802997 0.00019765627391896555 266.22659159408715
0.00019895584245581416 0.0001970758730410135 -0.0039255560797508025 -0.0038822794817471237 -0.003896705014415017 0.0001977025295126137 266.23898140816885
0.0001990162817260074 0.00019711515738426937 -0.003928050749955242 -0.003884483031680478 -0.0038990056044387322 0.00019774886549818203 266.25137122225055
0.0001990773324479943 0.00019715505302427428 -0.003930547962491178 -0.0038866885984892687 -0.003901308386489905 0.00019779581283218094 266.26376103633226
0.0001991377690786021 0.0001971946935976686 -0.0039330482824308285 -0.0038888960343940347 -0.0039036134504062993 0.00019784238542464643 266.2761508504139
0.00019920020258830837 0.0001972340987992475 -0.003935550986905926 -0.003891105931467586 -0.0039059209499470327 0.00019788946672893447 266.2885406644956
0.00019926132732119733 0.0001972741460306132 -0.003938055824809939 -0.0038933180602067647 -0.003908230648407823 0.00019793653979414123 266.3009304785773
0.00019932290880623102 0.00019731393802292579 -0.003940563800186133 -0.0038955322776780188 -0.003910542785180723 0.0001979835949506942 266.313320292659
0.0001993846483151568 0.0001973538663740504 -0.0039430744134166815 -0.0038977488631217454 -0.003912857379886724 0.00019803079368775254 266.3257101067407
0.00019944606090306331 0.0001973937650184994 -0.00394558825279061 -0.00389996788545211 -0.003915174674564943 0.00019807786364668735 266.33809992082234
0.00019950905735644707 0.00019743404235068496 -0.003948104416436809 -0.003902189236836811 -0.003917494296703477 0.00019812571401927234 266.35048973490404
0.00019957002981024806 0.00019747403835067165 -0.003950623508901438 -0.0039044130742280363 -0.0039198165524525035 0.00019817270217053045 266.36287954898575
0.0001996326335631715 0.00019751455307285258 -0.003953145917799041 -0.003906639397641529 -0.003922141571027366 0.0001982205799029589 266.37526936306745
0.00019969387551336913 0.00019755471225515236 -0.003955671481540419 -0.003908868237372924 -0.003924469318762089 0.00019826776667455795 266.38765917714915
0.00019975616072520841 0.00019759506669902711 -0.003958201055163959 -0.003911099935843204 -0.003926800308950123 0.0001983154313744209 266.4000489912308
0.00019981941522696198 0.0001976354453517715 -0.003960733364308423 -0.003913334518636205 -0.003929134133860278 0.00019836343531016835 266.4124388053125
0.0001998818196312999 0.00019767590615054226 -0.003963268805153147 -0.0039155723851075274 -0.0039314711917894 0.00019841121064412813 266.4248286193942
0.00019994422426516015 0.00019771740679089462 -0.0039658084805662495 -0.00391781299546435 -0.003933811490498317 0.00019845967928231646 266.4372184334759
0.0002000073674959964 0.00019775774152812678 -0.003968352211033311 -0.003920057033894021 -0.003936155426273784 0.00019850761685074998 266.44960824755753
0.0002000705716915045 0.00019779945458850708 -0.003970900042864388 -0.003922304835420581 -0.0039385032379018504 0.00019855649362283956 266.46199806163924
0.00020013376322877309 0.00019784022559327766 -0.0039734528102622615 -0.003924556517988525 -0.00394085528207977 0.00019860473813844282 266.47438787572094
0.00020019694218145748 0.000197880600750563 -0.003976011821626599 -0.003926814434534037 -0.003943213563564891 0.00019865271456086115 266.48677768980264
0.00020026010853391827 0.00019792184347595381 -0.003978581491364489 -0.003929082443520372 -0.003945582126135078 0.00019870126516194198 266.49916750388434
0.0002003350679707588 0.00019797488002663263 -0.003981161921485243 -0.003931359489129958 -0.003947960299915052 0.00019876160934134134 266.511557317966
0.00020042917239817534 0.00019804461215896125 -0.003983739530663118 -0.003933633497852525 -0.003950335508789389 0.00019883946557203258 266.5239471320477
0.00020052341520565616 0.00019811525873802993 -0.0039863091169271 -0.003935900130234979 -0.00395270312579902 0.00019891797756057202 266.5363369461294
0.00020061784516979092 0.0001981864489167305 -0.003988876372255009 -0.003938164035733304 -0.0039550681479072055 0.00019899691433441732 266.5487267602111
0.00020071147069637292 0.0001982576703048627 -0.003991443512021614 -0.003940426470004367 -0.003957432150676783 0.00019907560376869945 266.5611165742928
0.000200806783362518 0.00019832879854451264 -0.0039940108365731095 -0.003942688033464268 -0.003959795634500549 0.00019915479348384774 266.5735063883744
0.0002009017302336915 0.0001983985034801485 -0.003996577870885908 -0.003944950235886513 -0.003962159447552978 0.00019923291239799616 266.5858962024561
