beta_para	beta_perp	delta_para	delta_perp	delta	beta	energy
0.000000710653669517	0.000000710653669517	0.000039114925234654	0.000039114925234654	0.000039114925234654	0.000000710653669517	2457.000000000000000000
0.000000710658515312	0.000000710658515312	0.000039114241647048	0.000039114241647048	0.000039114241647048	0.000000710658515312	2457.010000000000218279
0.000000710659908539	0.000000710659908539	0.000039113563626355	0.000039113563626355	0.000039113563626355	0.000000710659908539	2457.019999999999981810
0.000000710664754157	0.000000710664754157	0.000039112886783050	0.000039112886783050	0.000039112886783050	0.000000710664754157	2457.030000000000200089
0.000000710669599673	0.000000710669599673	0.000039112213052617	0.000039112213052617	0.000039112213052617	0.000000710669599673	2457.039999999999963620
0.000000710672709270	0.000000710672709270	0.000039111540078361	0.000039111540078361	0.000039111540078361	0.000000710672709270	2457.050000000000181899
0.000000710677554596	0.000000710677554596	0.000039110867931189	0.000039110867931189	0.000039110867931189	0.000000710677554596	2457.059999999999945430
0.000000710680683281	0.000000710680683281	0.000039110196817336	0.000039110196817336	0.000039110196817336	0.000000710680683281	2457.070000000000163709
0.000000710683792642	0.000000710683792642	0.000039109525047064	0.000039109525047064	0.000039109525047064	0.000000710683792642	2457.079999999999927240
0.000000710688637688	0.000000710688637688	0.000039108854102552	0.000039108854102552	0.000039108854102552	0.000000710688637688	2457.090000000000145519
0.000000710691746886	0.000000710691746886	0.000039108183594053	0.000039108183594053	0.000039108183594053	0.000000710691746886	2457.099999999999909051
0.000000710696591741	0.000000710696591741	0.000039107513458068	0.000039107513458068	0.000039107513458068	0.000000710696591741	2457.110000000000127329
0.000000710699720027	0.000000710699720027	0.000039106843974570	0.000039106843974570	0.000039106843974570	0.000000710699720027	2457.119999999999890861
0.000000710702828988	0.000000710702828988	0.000039106173486344	0.000039106173486344	0.000039106173486344	0.000000710702828988	2457.130000000000109139
0.000000710707673565	0.000000710707673565	0.000039105503198634	0.000039105503198634	0.000039105503198634	0.000000710707673565	2457.139999999999872671
0.000000710712518038	0.000000710712518038	0.000039104834365238	0.000039104834365238	0.000039104834365238	0.000000710712518038	2457.150000000000090949
0.000000710715626749	0.000000710715626749	0.000039104165670710	0.000039104165670710	0.000039104165670710	0.000000710715626749	2457.159999999999854481
0.000000710718754635	0.000000710718754635	0.000039103495843147	0.000039103495843147	0.000039103495843147	0.000000710718754635	2457.170000000000072760
0.000000710723598829	0.000000710723598829	0.000039102826459058	0.000039102826459058	0.000039102826459058	0.000000710723598829	2457.179999999999836291
0.000000710726707303	0.000000710726707303	0.000039102157115426	0.000039102157115426	0.000039102157115426	0.000000710726707303	2457.190000000000054570
0.000000710731551308	0.000000710731551308	0.000039101487405389	0.000039101487405389	0.000039101487405389	0.000000710731551308	2457.199999999999818101
0.000000710736395209	0.000000710736395209	0.000039100818591903	0.000039100818591903	0.000039100818591903	0.000000710736395209	2457.210000000000036380
0.000000710741239008	0.000000710741239008	0.000039100151013159	0.000039100151013159	0.000039100151013159	0.000000710741239008	2457.219999999999799911
0.000000710742630830	0.000000710742630830	0.000039099482140610	0.000039099482140610	0.000039099482140610	0.000000710742630830	2457.230000000000018190
0.000000710747474452	0.000000710747474452	0.000039098811996022	0.000039098811996022	0.000039098811996022	0.000000710747474452	2457.239999999999781721
0.000000710752317972	0.000000710752317972	0.000039098143416694	0.000039098143416694	0.000039098143416694	0.000000710752317972	2457.250000000000000000
0.000000710755425871	0.000000710755425871	0.000039097474426178	0.000039097474426178	0.000039097474426178	0.000000710755425871	2457.260000000000218279
0.000000710760269200	0.000000710760269200	0.000039096804980628	0.000039096804980628	0.000039096804980628	0.000000710760269200	2457.269999999999981810
0.000000710765112428	0.000000710765112428	0.000039096136702900	0.000039096136702900	0.000039096136702900	0.000000710765112428	2457.280000000000200089
0.000000710768239322	0.000000710768239322	0.000039095468347344	0.000039095468347344	0.000039095468347344	0.000000710768239322	2457.289999999999963620
0.000000710771346896	0.000000710771346896	0.000039094798623077	0.000039094798623077	0.000039094798623077	0.000000710771346896	2457.300000000000181899
0.000000710776189844	0.000000710776189844	0.000039094128785731	0.000039094128785731	0.000039094128785731	0.000000710776189844	2457.309999999999945430
0.000000710781032690	0.000000710781032690	0.000039093460074910	0.000039093460074910	0.000039093460074910	0.000000710781032690	2457.320000000000163709
0.000000710784140012	0.000000710784140012	0.000039092790832882	0.000039092790832882	0.000039092790832882	0.000000710784140012	2457.329999999999927240
0.000000710788982668	0.000000710788982668	0.000039092121045375	0.000039092121045375	0.000039092121045375	0.000000710788982668	2457.340000000000145519
0.000000710793825220	0.000000710793825220	0.000039091452335322	0.000039091452335322	0.000039091452335322	0.000000710793825220	2457.349999999999909051
0.000000710796951539	0.000000710796951539	0.000039090783437325	0.000039090783437325	0.000039090783437325	0.000000710796951539	2457.360000000000127329
0.000000710800058536	0.000000710800058536	0.000039090112993852	0.000039090112993852	0.000039090112993852	0.000000710800058536	2457.369999999999890861
0.000000710804900810	0.000000710804900810	0.000039089441799927	0.000039089441799927	0.000039089441799927	0.000000710804900810	2457.380000000000109139
0.000000710811731993	0.000000710811731993	0.000039088772198971	0.000039088772198971	0.000039088772198971	0.000000710811731993	2457.389999999999872671
0.000000710816574045	0.000000710816574045	0.000039088104151566	0.000039088104151566	0.000039088104151566	0.000000710816574045	2457.400000000000090949
0.000000710819680688	0.000000710819680688	0.000039087434972463	0.000039087434972463	0.000039087434972463	0.000000710819680688	2457.409999999999854481
0.000000710824522551	0.000000710824522551	0.000039086765448330	0.000039086765448330	0.000039086765448330	0.000000710824522551	2457.420000000000072760
0.000000710827648276	0.000000710827648276	0.000039086095689150	0.000039086095689150	0.000039086095689150	0.000000710827648276	2457.429999999999836291
0.000000710832489948	0.000000710832489948	0.000039085425708599	0.000039085425708599	0.000039085425708599	0.000000710832489948	2457.440000000000054570
0.000000710835596266	0.000000710835596266	0.000039084755448514	0.000039084755448514	0.000039084755448514	0.000000710835596266	2457.449999999999818101
0.000000710840437747	0.000000710840437747	0.000039084084529976	0.000039084084529976	0.000039084084529976	0.000000710840437747	2457.460000000000036380
0.000000710845279125	0.000000710845279125	0.000039083414157057	0.000039083414157057	0.000039083414157057	0.000000710845279125	2457.469999999999799911
0.000000710850120401	0.000000710850120401	0.000039082743991470	0.000039082743991470	0.000039082743991470	0.000000710850120401	2457.480000000000018190
0.000000710854961575	0.000000710854961575	0.000039082074362640	0.000039082074362640	0.000039082074362640	0.000000710854961575	2457.489999999999781721
0.000000710858067466	0.000000710858067466	0.000039081404056365	0.000039081404056365	0.000039081404056365	0.000000710858067466	2457.500000000000000000
0.000000710862908450	0.000000710862908450	0.000039080733436933	0.000039080733436933	0.000039080733436933	0.000000710862908450	2457.510000000000218279
0.000000710866033422	0.000000710866033422	0.000039080062527529	0.000039080062527529	0.000039080062527529	0.000000710866033422	2457.519999999999981810
0.000000710870874215	0.000000710870874215	0.000039079390999458	0.000039079390999458	0.000039079390999458	0.000000710870874215	2457.530000000000200089
0.000000710875714905	0.000000710875714905	0.000039078720399523	0.000039078720399523	0.000039078720399523	0.000000710875714905	2457.539999999999963620
0.000000710878820383	0.000000710878820383	0.000039078049093258	0.000039078049093258	0.000039078049093258	0.000000710878820383	2457.550000000000181899
0.000000710883660883	0.000000710883660883	0.000039077377020567	0.000039077377020567	0.000039077377020567	0.000000710883660883	2457.559999999999945430
0.000000710888501281	0.000000710888501281	0.000039076705406813	0.000039076705406813	0.000039076705406813	0.000000710888501281	2457.570000000000163709
0.000000710893341576	0.000000710893341576	0.000039076033884428	0.000039076033884428	0.000039076033884428	0.000000710893341576	2457.579999999999927240
0.000000710898181769	0.000000710898181769	0.000039075362452818	0.000039075362452818	0.000039075362452818	0.000000710898181769	2457.590000000000145519
0.000000710903021859	0.000000710903021859	0.000039074691492013	0.000039074691492013	0.000039074691492013	0.000000710903021859	2457.599999999999909051
0.000000710906126822	0.000000710906126822	0.000039074020057890	0.000039074020057890	0.000039074020057890	0.000000710906126822	2457.610000000000127329
0.000000710909250953	0.000000710909250953	0.000039073346487189	0.000039073346487189	0.000039073346487189	0.000000710909250953	2457.619999999999890861
0.000000710916079387	0.000000710916079387	0.000039072673448658	0.000039072673448658	0.000039072673448658	0.000000710916079387	2457.630000000000109139
0.000000710920919080	0.000000710920919080	0.000039072001810015	0.000039072001810015	0.000039072001810015	0.000000710920919080	2457.639999999999872671
0.000000710925758671	0.000000710925758671	0.000039071329772450	0.000039071329772450	0.000039071329772450	0.000000710925758671	2457.650000000000090949
0.000000710930598160	0.000000710930598160	0.000039070658066395	0.000039070658066395	0.000039070658066395	0.000000710930598160	2457.659999999999854481
0.000000710933702605	0.000000710933702605	0.000039069985479792	0.000039069985479792	0.000039069985479792	0.000000710933702605	2457.670000000000072760
0.000000710938541903	0.000000710938541903	0.000039069312020014	0.000039069312020014	0.000039069312020014	0.000000710938541903	2457.679999999999836291
0.000000710943381099	0.000000710943381099	0.000039068638932960	0.000039068638932960	0.000039068638932960	0.000000710943381099	2457.690000000000054570
0.000000710948220193	0.000000710948220193	0.000039067965848055	0.000039067965848055	0.000039067965848055	0.000000710948220193	2457.699999999999818101
0.000000710953059184	0.000000710953059184	0.000039067292721565	0.000039067292721565	0.000039067292721565	0.000000710953059184	2457.710000000000036380
0.000000710957898073	0.000000710957898073	0.000039066619554881	0.000039066619554881	0.000039066619554881	0.000000710957898073	2457.719999999999799911
0.000000710962736859	0.000000710962736859	0.000039065946396469	0.000039065946396469	0.000039065946396469	0.000000710962736859	2457.730000000000018190
0.000000710967575543	0.000000710967575543	0.000039065273630087	0.000039065273630087	0.000039065273630087	0.000000710967575543	2457.739999999999781721
0.000000710970679298	0.000000710970679298	0.000039064600055074	0.000039064600055074	0.000039064600055074	0.000000710970679298	2457.750000000000000000
0.000000710975517792	0.000000710975517792	0.000039063926028108	0.000039063926028108	0.000039063926028108	0.000000710975517792	2457.760000000000218279
0.000000710978640623	0.000000710978640623	0.000039063251537953	0.000039063251537953	0.000039063251537953	0.000000710978640623	2457.769999999999981810
0.000000710983478927	0.000000710983478927	0.000039062576147244	0.000039062576147244	0.000039062576147244	0.000000710983478927	2457.780000000000200089
0.000000710988317128	0.000000710988317128	0.000039061900601139	0.000039061900601139	0.000039061900601139	0.000000710988317128	2457.789999999999963620
0.000000710995143574	0.000000710995143574	0.000039061225934880	0.000039061225934880	0.000039061225934880	0.000000710995143574	2457.800000000000181899
0.000000710999981554	0.000000710999981554	0.000039060552092873	0.000039060552092873	0.000039060552092873	0.000000710999981554	2457.809999999999945430
0.000000711004819432	0.000000711004819432	0.000039059877643394	0.000039059877643394	0.000039059877643394	0.000000711004819432	2457.820000000000163709
0.000000711009657207	0.000000711009657207	0.000039059203053761	0.000039059203053761	0.000039059203053761	0.000000711009657207	2457.829999999999927240
0.000000711014494881	0.000000711014494881	0.000039058528749354	0.000039058528749354	0.000039058528749354	0.000000711014494881	2457.840000000000145519
0.000000711017597765	0.000000711017597765	0.000039057853502116	0.000039057853502116	0.000039057853502116	0.000000711017597765	2457.849999999999909051
0.000000711022435248	0.000000711022435248	0.000039057177315295	0.000039057177315295	0.000039057177315295	0.000000711022435248	2457.860000000000127329
0.000000711027272629	0.000000711027272629	0.000039056501428937	0.000039056501428937	0.000039056501428937	0.000000711027272629	2457.869999999999890861
0.000000711032109907	0.000000711032109907	0.000039055825461733	0.000039055825461733	0.000039055825461733	0.000000711032109907	2457.880000000000109139
0.000000711036947084	0.000000711036947084	0.000039055149348702	0.000039055149348702	0.000039055149348702	0.000000711036947084	2457.889999999999872671
0.000000711041784157	0.000000711041784157	0.000039054473046138	0.000039054473046138	0.000039054473046138	0.000000711041784157	2457.900000000000090949
0.000000711046621129	0.000000711046621129	0.000039053796481854	0.000039053796481854	0.000039053796481854	0.000000711046621129	2457.909999999999854481
0.000000711051457998	0.000000711051457998	0.000039053119218402	0.000039053119218402	0.000039053119218402	0.000000711051457998	2457.920000000000072760
0.000000711058282903	0.000000711058282903	0.000039052442673773	0.000039052442673773	0.000039052442673773	0.000000711058282903	2457.929999999999836291
0.000000711063119551	0.000000711063119551	0.000039051766843207	0.000039051766843207	0.000039051766843207	0.000000711063119551	2457.940000000000054570
0.000000711067956098	0.000000711067956098	0.000039051090298805	0.000039051090298805	0.000039051090298805	0.000000711067956098	2457.949999999999818101
0.000000711072792542	0.000000711072792542	0.000039050413466069	0.000039050413466069	0.000039050413466069	0.000000711072792542	2457.960000000000036380
0.000000711077628884	0.000000711077628884	0.000039049736400844	0.000039049736400844	0.000039049736400844	0.000000711077628884	2457.969999999999799911
0.000000711082465124	0.000000711082465124	0.000039049059119469	0.000039049059119469	0.000039049059119469	0.000000711082465124	2457.980000000000018190
0.000000711087301261	0.000000711087301261	0.000039048381624344	0.000039048381624344	0.000039048381624344	0.000000711087301261	2457.989999999999781721
0.000000711092137296	0.000000711092137296	0.000039047703908237	0.000039047703908237	0.000039047703908237	0.000000711092137296	2458.000000000000000000
0.000000711096973229	0.000000711096973229	0.000039047025949792	0.000039047025949792	0.000039047025949792	0.000000711096973229	2458.010000000000218279
0.000000711101809060	0.000000711101809060	0.000039046347687927	0.000039046347687927	0.000039046347687927	0.000000711101809060	2458.019999999999981810
0.000000711106644789	0.000000711106644789	0.000039045668691460	0.000039045668691460	0.000039045668691460	0.000000711106644789	2458.030000000000200089
0.000000711113468374	0.000000711113468374	0.000039044990381761	0.000039044990381761	0.000039044990381761	0.000000711113468374	2458.039999999999963620
0.000000711118303882	0.000000711118303882	0.000039044312755941	0.000039044312755941	0.000039044312755941	0.000000711118303882	2458.050000000000181899
0.000000711123139288	0.000000711123139288	0.000039043634386617	0.000039043634386617	0.000039043634386617	0.000000711123139288	2458.059999999999945430
0.000000711127974591	0.000000711127974591	0.000039042955698299	0.000039042955698299	0.000039042955698299	0.000000711127974591	2458.070000000000163709
0.000000711132809792	0.000000711132809792	0.000039042276743682	0.000039042276743682	0.000039042276743682	0.000000711132809792	2458.079999999999927240
0.000000711137644891	0.000000711137644891	0.000039041597532055	0.000039041597532055	0.000039041597532055	0.000000711137644891	2458.090000000000145519
0.000000711142479888	0.000000711142479888	0.000039040918049038	0.000039040918049038	0.000039040918049038	0.000000711142479888	2458.099999999999909051
0.000000711147314783	0.000000711147314783	0.000039040238236617	0.000039040238236617	0.000039040238236617	0.000000711147314783	2458.110000000000127329
0.000000711152149575	0.000000711152149575	0.000039039557664763	0.000039039557664763	0.000039039557664763	0.000000711152149575	2458.119999999999890861
0.000000711158972079	0.000000711158972079	0.000039038877754465	0.000039038877754465	0.000039038877754465	0.000000711158972079	2458.130000000000109139
0.000000711163806650	0.000000711163806650	0.000039038198501389	0.000039038198501389	0.000039038198501389	0.000000711163806650	2458.139999999999872671
0.000000711168641120	0.000000711168641120	0.000039037518475507	0.000039037518475507	0.000039037518475507	0.000000711168641120	2458.150000000000090949
0.000000711173475487	0.000000711173475487	0.000039036838096455	0.000039036838096455	0.000039036838096455	0.000000711173475487	2458.159999999999854481
0.000000711178309752	0.000000711178309752	0.000039036157408896	0.000039036157408896	0.000039036157408896	0.000000711178309752	2458.170000000000072760
0.000000711183143915	0.000000711183143915	0.000039035476407830	0.000039035476407830	0.000039035476407830	0.000000711183143915	2458.179999999999836291
0.000000711187977976	0.000000711187977976	0.000039034795050313	0.000039034795050313	0.000039034795050313	0.000000711187977976	2458.190000000000054570
0.000000711192811934	0.000000711192811934	0.000039034113206688	0.000039034113206688	0.000039034113206688	0.000000711192811934	2458.199999999999818101
0.000000711197645791	0.000000711197645791	0.000039033430023559	0.000039033430023559	0.000039033430023559	0.000000711197645791	2458.210000000000036380
0.000000711206182145	0.000000711206182145	0.000039032747775585	0.000039032747775585	0.000039032747775585	0.000000711206182145	2458.219999999999799911
0.000000711212749916	0.000000711212749916	0.000039032067701432	0.000039032067701432	0.000039032067701432	0.000000711212749916	2458.230000000000018190
0.000000711217583422	0.000000711217583422	0.000039031387145252	0.000039031387145252	0.000039031387145252	0.000000711217583422	2458.239999999999781721
0.000000711222416825	0.000000711222416825	0.000039030705659144	0.000039030705659144	0.000039030705659144	0.000000711222416825	2458.250000000000000000
0.000000711227250126	0.000000711227250126	0.000039030023720868	0.000039030023720868	0.000039030023720868	0.000000711227250126	2458.260000000000218279
0.000000711232083325	0.000000711232083325	0.000039029341408083	0.000039029341408083	0.000039029341408083	0.000000711232083325	2458.269999999999981810
0.000000711236916422	0.000000711236916422	0.000039028658728699	0.000039028658728699	0.000039028658728699	0.000000711236916422	2458.280000000000200089
0.000000711241749417	0.000000711241749417	0.000039027975627648	0.000039027975627648	0.000039027975627648	0.000000711241749417	2458.289999999999963620
0.000000711246582309	0.000000711246582309	0.000039027291660025	0.000039027291660025	0.000039027291660025	0.000000711246582309	2458.300000000000181899
0.000000711253402622	0.000000711253402622	0.000039026608192756	0.000039026608192756	0.000039026608192756	0.000000711253402622	2458.309999999999945430
