beta_para beta_perp delta_para delta_perp delta beta energy
9.41377205253201e-05 9.41377205253201e-05 0.0004666926761713924 0.00045697040558703044 0.00046021116244848444 9.413772052532011e-05 661.0
9.413462056351811e-05 9.41347390417584e-05 0.0004666649046430483 0.00045693954252692146 0.0004601813298989637 9.413469954901164e-05 661.0111123458162
9.413158586089778e-05 9.413179478417018e-05 0.0004666382641933199 0.00045690985393286385 0.0004601526573530159 9.413172514307938e-05 661.0222246916325
9.412848622186686e-05 9.412881358977906e-05 0.0004666120488568326 0.00045688061559428947 0.0004601244266818039 9.412870446714166e-05 661.0333370374486
9.41254518086495e-05 9.41258325591431e-05 0.0004665861091621334 0.0004568516400316366 0.0004600964630751355 9.41257056423119e-05 661.0444493832648
9.412235249222935e-05 9.412288870572355e-05 0.0004665603742701436 0.00045682289606570434 0.0004600687221338508 9.412270996789214e-05 661.055561729081
9.411931836843478e-05 9.411987181587371e-05 0.00046653480250861555 0.00045679431466389905 0.0004600411439454712 9.411968733339407e-05 661.0666740748973
9.411621937475806e-05 9.411689123925554e-05 0.0004665093664565356 0.0004567658331292177 0.00046001367757165704 9.411666728442303e-05 661.0777864207134
9.411318554028897e-05 9.411394783164921e-05 0.00046648404674651527 0.0004567374915879777 0.00045998634330749025 9.411369373452913e-05 661.0888987665296
9.411008686925397e-05 9.411096751937327e-05 0.0004664588292619173 0.00045670926780065277 0.0004599591216210743 9.411067396933351e-05 661.1000111123458
9.410705332407153e-05 9.410798735429526e-05 0.0004664337041248445 0.0004566811215707964 0.00045993198242214576 9.410767601088735e-05 661.1111234581621
9.410395489604824e-05 9.41050073817326e-05 0.0004664086747792607 0.0004566530430544207 0.000459904920296034 9.410465655317116e-05 661.1222358039782
9.410085670998927e-05 9.41020645401752e-05 0.00046638367474119614 0.00045662505126911363 0.0004598779257598078 9.410166193011322e-05 661.1333481497944
9.40978235997582e-05 9.409908486895668e-05 0.0004663587569445377 0.0004565971330569832 0.000459851007686168 9.409866444589053e-05 661.1444604956106
9.409472573611606e-05 9.409614225335984e-05 0.0004663339035997055 0.00045656929044285833 0.0004598241614951407 9.409567008094525e-05 661.1555728414269
9.409169291513336e-05 9.409312673276149e-05 0.00046630910873087634 0.0004565414997180908 0.0004597973693890193 9.409264879355212e-05 661.166685187243
9.408859537404062e-05 9.409014751528947e-05 0.0004662843679711324 0.00045651372338350324 0.00045977060491271294 9.40896301348732e-05 661.1777975330592
9.408556284220887e-05 9.408720538139506e-05 0.0004662596776832571 0.0004564860181925355 0.00045974390468944275 9.4086657868333e-05 661.1889098788754
9.40824656235639e-05 9.408422639102493e-05 0.0004662350347692943 0.0004564583732447875 0.00045971726041962304 9.408363946853792e-05 661.2000222246917
9.40794333808444e-05 9.408124762602709e-05 0.00046621043648582307 0.0004564307505418108 0.0004596906458564816 9.408064287763286e-05 661.2111345705079
9.407633648460418e-05 9.407830591611773e-05 0.0004661858804302141 0.00045640318147131576 0.00045966408112428186 9.407764943894655e-05 661.222246916324
9.40733045309582e-05 9.407532736580238e-05 0.0004661613644272052 0.00045637566357579844 0.00045963756385960066 9.407465308752099e-05 661.2333592621402
9.407020795707937e-05 9.407234905318802e-05 0.00046613688655186184 0.0004563481606507881 0.0004596110692844794 9.407163535448514e-05 661.2444716079565
9.406717629240988e-05 9.40694077670145e-05 0.0004661124450408909 0.00045632070514388477 0.0004595846184428868 9.40686639421463e-05 661.2555839537727
9.406408004079147e-05 9.406642965666614e-05 0.0004660880383347739 0.0004562932955325427 0.0004595582097999531 9.406564645137458e-05 661.2666962995888
9.406104866523492e-05 9.406345179631284e-05 0.00046606366500689776 0.0004562658969806333 0.0004595318196560548 9.40626507526202e-05 661.277808645405
9.405795273589208e-05 9.406051082976452e-05 0.0004660393238320444 0.00045623854915412086 0.000459505474046762 9.405965813180704e-05 661.2889209912213
9.405492164929291e-05 9.405749724434917e-05 0.0004660150137673934 0.00045621121792460283 0.0004594791498721997 9.405663871266374e-05 661.3000333370375
9.40518260421827e-05 9.405455666548544e-05 0.00046599073417138 0.0004561839020871479 0.0004594528461152253 9.405364645771786e-05 661.3111456828536
9.40487952445022e-05 9.405157928901977e-05 0.0004659664854675689 0.0004561566330194211 0.0004594265838354704 9.405065127418058e-05 661.3222580286698
9.404569974268072e-05 9.404860218308834e-05 0.0004659422790073461 0.00045612936829047396 0.0004594003385294313 9.404763470295247e-05 661.3333703744861
9.404260461993144e-05 9.404566202789874e-05 0.00046591805507006787 0.00045610213941887256 0.0004593741113026043 9.404464289190964e-05 661.3444827203023
9.403957425659137e-05 9.404268522273342e-05 0.0004658938716945506 0.0004560749381800638 0.00045934791601822604 9.40416482340194e-05 661.3555950661184
9.403647945590891e-05 9.40397453495656e-05 0.00046586971551829326 0.0004560477635147392 0.0004593217475159239 9.40386567183467e-05 661.3667074119346
9.403344938150737e-05 9.403676870552495e-05 0.00046584558426396473 0.00045602062124771377 0.0004592956089197974 9.403566226418577e-05 661.3778197577509
9.403035490290685e-05 9.403379235251757e-05 0.0004658214767078993 0.0004559934770193263 0.0004592694769155173 9.403264653598066e-05 661.3889321035671
9.402732511728853e-05 9.403085290288362e-05 0.0004657973919092564 0.00045596636361936956 0.00045924337304933184 9.402967697435193e-05 661.4000444493832
9.402423096072696e-05 9.402787685074024e-05 0.0004657733291034976 0.00045593927332715864 0.0004592172919192716 9.402666155406915e-05 661.4111567951994
9.402120146385315e-05 9.402493768300034e-05 0.0004657492875789901 0.00045591220491782554 0.0004591912324715471 9.402369227661795e-05 661.4222691410157
9.401810762928756e-05 9.402196193168102e-05 0.00046572526671396174 0.00045588515816431373 0.00045916519434752975 9.402067716421653e-05 661.4333814868319
9.401507842111936e-05 9.401902304579702e-05 0.0004657012658994798 0.0004558581343280569 0.00045913917818519783 9.401770817090446e-05 661.444493832648
9.401198490838992e-05 9.401604726180893e-05 0.00046567728459375075 0.0004558311474125408 0.0004591131931396108 9.40146931440026e-05 661.4556061784642
9.400895598894768e-05 9.401303601445303e-05 0.0004656533222536577 0.00045580413771916905 0.0004590871992306653 9.401167600595125e-05 661.4667185242805
9.400586279818654e-05 9.401009755315329e-05 0.00046562937839333984 0.0004557771383344249 0.00045906121835406316 9.400868596816436e-05 661.4778308700967
9.400283416737291e-05 9.400712255552151e-05 0.0004656054525172805 0.0004557501673474126 0.0004590352624040353 9.400569309280531e-05 661.4889432159129
9.39997412984788e-05 9.40041843759845e-05 0.0004655815441796708 0.0004557232156838169 0.0004590093251824349 9.400270335014927e-05 661.500055561729
9.399671295625507e-05 9.400120967903684e-05 0.00046555765291762493 0.00045569628157452033 0.00045898340535555516 9.399971077144293e-05 661.5111679075453
9.399362040918506e-05 9.399827178122516e-05 0.0004655337783088435 0.0004556693641658443 0.0004589575022135107 9.399672132387846e-05 661.5222802533615
9.399059235551262e-05 9.399529738492177e-05 0.00046550991990145803 0.00045564246307198465 0.0004589316153484758 9.399372904178539e-05 661.5333925991777
9.39875001302231e-05 9.399235976879706e-05 0.0004654860772645385 0.00045561557861312533 0.00045890574483026307 9.399073988927241e-05 661.5445049449938
9.398447236500545e-05 9.398938546718605e-05 0.00046546224989987974 0.0004555887172563161 0.00045887989480417063 9.398774776645919e-05 661.5556172908101
9.398138046139623e-05 9.398641152236282e-05 0.0004654384372468802 0.00045556184526871933 0.0004588540425947729 9.398473450204061e-05 661.5667296366263
9.3978352984769e-05 9.398347432935583e-05 0.0004654146384487291 0.0004555349956992794 0.00045882820994909597 9.398176721449356e-05 661.5778419824425
9.397526140285502e-05 9.398050068507701e-05 0.0004653908516533547 0.0004555081610585214 0.00045880239125679917 9.397875425766967e-05 661.5889543282588
9.397223460473497e-05 9.397756377366428e-05 0.00046536706439614424 0.0004554813401457677 0.0004587765815625599 9.397578738402116e-05 661.6000666740749
9.396920755965464e-05 9.397459042989004e-05 0.00046534333479869816 0.00045545453235112444 0.000458750799833649 9.397279613981158e-05 661.6111790198911
9.396611645911129e-05 9.397165380003409e-05 0.0004653196038947293 0.000455427737217177 0.0004587250261096944 9.39698080197265e-05 661.6222913657073
9.396308970240855e-05 9.39686807567245e-05 0.0004652958839052336 0.00045540095437858133 0.00045869926422079874 9.396681707195252e-05 661.6334037115236
9.395999892345249e-05 9.396574440838689e-05 0.0004652721760597734 0.00045537418349244686 0.00045867351434822237 9.39638292467421e-05 661.6445160573397
9.395697245503106e-05 9.396277166530494e-05 0.0004652484805899088 0.00045534742425946517 0.0004586477763696131 9.396083859521364e-05 661.6556284031559
9.395388199756237e-05 9.395983559848368e-05 0.0004652247974927929 0.00045532067638106926 0.00045862205008497713 9.395785106484324e-05 661.6667407489721
9.395085581755763e-05 9.395686315595054e-05 0.0004652011266339991 0.00045529393959075433 0.000458596335271836 9.395486070981958e-05 661.6778530947884
9.394776568159116e-05 9.395392737057383e-05 0.00046517746786518116 0.0004552672136153307 0.00045857063169861415 9.395187347424627e-05 661.6889654406045
9.394473978984827e-05 9.395095522838576e-05 0.000465153820983523 0.00045524049820856857 0.0004585449391335534 9.394888341553993e-05 661.7000777864207
9.394164997534117e-05 9.394801972441628e-05 0.00046513018580458305 0.0004552137931140831 0.00045851925734424976 9.394589647472458e-05 661.7111901322369
9.393862437182153e-05 9.39450478825334e-05 0.0004651065621024062 0.0004551870980987444 0.000458493586099965 9.39429067122961e-05 661.7223024780532
9.393553487873083e-05 9.394211265993369e-05 0.00046508294967202566 0.0004551604129154436 0.0004584679251676376 9.39399200661994e-05 661.7334148238693
9.393250956339546e-05 9.39391411183147e-05 0.0004650593482626334 0.00045513373733614416 0.00045844227431164055 9.393693060000828e-05 661.7445271696855
9.392942039156179e-05 9.393620617688403e-05 0.0004650357576294567 0.0004551070711118284 0.0004584166332843712 9.39339442484433e-05 661.7556395155017
9.392639536443147e-05 9.393323493545877e-05 0.00046501217744803505 0.00045508041400138706 0.0004583910018169364 9.393095507844965e-05 661.766751861318
9.392330651398652e-05 9.39303002755198e-05 0.00046498860731936613 0.00045505376572205246 0.0004583653795878237 9.392796902167538e-05 661.7778642071341
9.39202817749638e-05 9.392732933428028e-05 0.00046496504653583326 0.0004550271259510973 0.0004583397661460093 9.392498014784146e-05 661.7889765529503
9.391719324580666e-05 9.392439495559896e-05 0.00046494149336330514 0.0004550004941922275 0.00045831416058258675 9.39219943856682e-05 661.8000888987665
9.391416932184221e-05 9.392142431450527e-05 0.0004649179356266711 0.00045497386936542726 0.0004582885581191752 9.391900598361759e-05 661.8112012445828
9.391114501381784e-05 9.39184905212858e-05 0.00046489443128072 0.00045494724445027 0.0004582629733937533 9.391604201879648e-05 661.822313590399
9.390805696542131e-05 9.391555656379971e-05 0.0004648709216565485 0.0004549206523536293 0.00045823740878793564 9.391305669767358e-05 661.8334259362151
9.390503294540774e-05 9.391258637222739e-05 0.00046484741903992684 0.0004548940595741966 0.0004582118460627733 9.39100685632875e-05 661.8445382820313
9.390194521807553e-05 9.390965269574246e-05 0.0004648239247377903 0.00045486747300922144 0.00045818629025207776 9.390708353652016e-05 661.8556506278476
9.389892148609369e-05 9.390668280418493e-05 0.0004648004390405582 0.0004548408932948737 0.00045816074187676856 9.390409569815451e-05 661.8667629736638
9.389583407995741e-05 9.390374940902346e-05 0.00046477696197268524 0.00045481432046690784 0.0004581352009688337 9.390111096600144e-05 661.8778753194799
9.389281063590984e-05 9.390077981747251e-05 0.0004647534933714895 0.00045478775436088524 0.00045810966736441997 9.389812342361829e-05 661.8889876652961
9.38897235508686e-05 9.389784670340063e-05 0.000464730032948268 0.00045476119457032744 0.0004580841406963076 9.389513898588994e-05 661.9001000111124
9.388670039471677e-05 9.389487741181652e-05 0.0004647065800762049 0.00045473464006093686 0.0004580586200660262 9.389215173944993e-05 661.9112123569286
9.388361363072781e-05 9.389194491993678e-05 0.00046468313307203914 0.00045470808387483596 0.00045803310027390365 9.388916782353378e-05 661.9223247027447
9.388059136861989e-05 9.388901222680844e-05 0.00046465967990288017 0.0004546815588235023 0.0004580075991832949 9.388620527407893e-05 661.9334370485609
9.387756864314864e-05 9.388604338447717e-05 0.0004646362783972562 0.00045465503137074204 0.00045798211371291344 9.3883218470701e-05 661.9445493943772
9.387448235945138e-05 9.388311097218227e-05 0.000464612870023219 0.0004546285081591508 0.00045795662878050686 9.388023476793863e-05 661.9556617401934
9.387145992183874e-05 9.388014242968704e-05 0.00046458946706160354 0.0004546019889666441 0.0004579311483316306 9.387724826040427e-05 661.9667740860095
9.386837395914466e-05 9.387721066016188e-05 0.0004645660708093595 0.00045457546713475035 0.00045790566835962 9.387426509315613e-05 661.9778864318257
9.386535180929307e-05 9.387427866886693e-05 0.0004645426815084998 0.000454548975557887 0.00045788021087475795 9.387130304900898e-05 661.988998777642
9.38622661675015e-05 9.387131057547751e-05 0.0004645192990487383 0.00045452248079648505 0.0004578547535472361 9.386829577281884e-05 662.0001111234582
9.385924430537248e-05 9.386837886508574e-05 0.00046449592289765315 0.00045449598952829553 0.0004578293006514147 9.386533401184798e-05 662.0112234692743
9.385615898444066e-05 9.386541107146441e-05 0.000464472551416736 0.00045446950155168114 0.00045780385150669947 9.386232704245649e-05 662.0223358150905
9.38531380809261e-05 9.386248002405394e-05 0.0004644491726796088 0.00045444301024355667 0.00045777839772224066 9.385936604301133e-05 662.0334481609068
9.385011664921849e-05 9.385954873432456e-05 0.0004644258443895947 0.0004544165484569801 0.0004577529804345183 9.385640470595587e-05 662.044560506723
9.384703180829014e-05 9.385658138946393e-05 0.0004644025080900678 0.000454390082769463 0.0004577275578763313 9.385339819573933e-05 662.0556728525391
9.384401066426806e-05 9.385365038057951e-05 0.00046437917599251224 0.0004543636198253392 0.00045770213854773024 9.385043714180902e-05 662.0667851983553
9.384092614415031e-05 9.385068333555057e-05 0.00046435584925164184 0.0004543371593605265 0.0004576767226575649 9.384743093841715e-05 662.0778975441716
9.383790528771621e-05 9.384775301001522e-05 0.0004643325277325859 0.00045431069465589626 0.0004576513056814595 9.384447043591554e-05 662.0890098899878
9.383482108830863e-05 9.384482242165535e-05 0.0004643092099632454 0.0004542842582473325 0.0004576259088193034 9.38414886438731e-05 662.100122235804
9.383180124067067e-05 9.384185582543462e-05 0.0004642858841684661 0.0004542578158646248 0.00045760050529923855 9.383850429717998e-05 662.1112345816201
9.382878081445716e-05 9.383892593266112e-05 0.0004642626080036784 0.0004542313675678021 0.00045757511437976087 9.383554422659312e-05 662.1223469274364
9.382569709494523e-05 9.383599576474206e-05 0.0004642393231202348 0.0004542049464673604 0.0004575497386849852 9.383256287480978e-05 662.1334592732526
9.382267695622304e-05 9.383302961723811e-05 0.0004642160417463232 0.00045417851825159145 0.000457524359416502 9.382957873023309e-05 662.1445716190688
9.381959355719826e-05 9.38301001462793e-05 0.00046419276505683867 0.0004541520822679887 0.0004574989765309387 9.382659794991896e-05 662.155683964885
9.38165737059886e-05 9.382716991778088e-05 0.00046416949293354474 0.00045412566382333516 0.00045747360686007165 9.382363784718346e-05 662.1667963107012
9.381349062758215e-05 9.382424074528973e-05 0.00046414622390949454 0.0004540992559917158 0.00045744824529764206 9.382065737272053e-05 662.1779086565174
9.381047183532675e-05 9.382131127715684e-05 0.0004641229462791728 0.00045407286587869885 0.00045742289267885686 9.381769812988013e-05 662.1890210023336
9.380745241413632e-05 9.381834587649275e-05 0.00046409971760017984 0.00045404646703096343 0.00045739755055403553 9.381471472237394e-05 662.2001333481498
9.380436981540169e-05 9.381541713653386e-05 0.0004640764795987212 0.00045402006071845627 0.00045737220034521123 9.381173469615647e-05 662.211245693966
9.380135068156887e-05 9.381248808861885e-05 0.000464053244492609 0.0004539936805316292 0.00045734686851862244 9.38087756196022e-05 662.2223580397822
9.379826840328804e-05 9.380952313643614e-05 0.00046403001345228203 0.000453967292696302 0.00045732153294829537 9.38057715587201e-05 662.2334703855984
9.379524955677355e-05 9.380659482892097e-05 0.0004640067863480107 0.0004539408975380647 0.0004572961938080467 9.38028130715385e-05 662.2445827314147
9.379216759878775e-05 9.380366620097806e-05 0.0004639835616827341 0.00045391452820843904 0.0004572708726998707 9.379983333358129e-05 662.2556950772308
9.378914986142113e-05 9.380070169715432e-05 0.00046396032776751796 0.0004538881505502123 0.0004572455429559809 9.379685108524325e-05 662.266807423047
9.378613144478386e-05 9.379777382200177e-05 0.00046393714197486425 0.0004538617639620082 0.0004572202232996268 9.37938930295958e-05 662.2779197688632
9.378304996630379e-05 9.379484609053682e-05 0.0004639139459332252 0.00045383539504703283 0.00045719491200909695 9.37909140491258e-05 662.2890321146795
9.378003183688968e-05 9.379191802242503e-05 0.0004638907514440682 0.0004538090429402537 0.0004571696124415252 9.378795596057992e-05 662.3001444604956
9.377695067871407e-05 9.378895411590578e-05 0.00046386755825908417 0.00045378267949527137 0.0004571443057498756 9.378495297017522e-05 662.3112568063118
9.377393369422633e-05 9.378602729299848e-05 0.00046384435512030023 0.0004537562984720945 0.00045711898402149646 9.378199609340776e-05 662.322369152128
9.377091599448671e-05 9.378313518636649e-05 0.00046382119948915545 0.00045372995873977685 0.0004570937056562364 9.377906212240657e-05 662.3334814979443
9.376783531559791e-05 9.37801717268204e-05 0.00046379803312608295 0.00045370362619228744 0.0004570684285035526 9.377605958974624e-05 662.3445938437604
9.376481790292877e-05 9.377724485835667e-05 0.00046377486786853905 0.0004536772758293021 0.0004570431398423811 9.377310253988072e-05 662.3557061895766
9.376173754418097e-05 9.377431762886475e-05 0.00046375170348671396 0.0004536509484092165 0.00045701786676838227 9.37701242673035e-05 662.3668185353928
9.375872131232064e-05 9.377135461738362e-05 0.00046372852877528777 0.0004536246109158703 0.00045699258353567614 9.376714351569595e-05 662.3779308812091
9.375570432929767e-05 9.376842818118863e-05 0.0004637054011207787 0.00045359826319151236 0.0004569673091679345 9.376418689722498e-05 662.3890432270252
9.375262444967863e-05 9.376550188858597e-05 0.00046368226231934006 0.0004535719320230708 0.00045694204212182724 9.376120940895018e-05 662.4001555728414
9.374960775368706e-05 9.3762575218359e-05 0.00046365912416668686 0.00045354561672372555 0.00045691678587137934 9.375825273013503e-05 662.4112679186576
9.374652819415921e-05 9.375961280378709e-05 0.00046363598635545196 0.0004535192897575105 0.00045689152195682435 9.375525126724446e-05 662.4223802644739
9.374351271467494e-05 9.375668694314343e-05 0.0004636128375677898 0.0004534929502303292 0.00045686624600948275 9.375229553365394e-05 662.43349261029
9.374049644807005e-05 9.375376174620628e-05 0.0004635897347264028 0.000453466617786358 0.00045684099009970624 9.374933998016089e-05 662.4446049561062
9.373741736739553e-05 9.375087111934119e-05 0.00046356661827324315 0.0004534403173353796 0.00045681575098133415 9.37463865353593e-05 662.4557173019224
