beta_para	beta_perp	delta_para	delta_perp	delta	beta	energy
0.000094137720525320	0.000094137720525320	0.000460211162448400	0.000460211162448400	0.000460211162448400	0.000094137720525320	661.000000000000000000
0.000094134699549012	0.000094134699549012	0.000460181329898900	0.000460181329898900	0.000460181329898900	0.000094134699549012	661.011112345816172819
0.000094131725143079	0.000094131725143079	0.000460152657353000	0.000460152657353000	0.000460152657353000	0.000094131725143079	661.022224691632459326
0.000094128704467142	0.000094128704467142	0.000460124426681800	0.000460124426681800	0.000460124426681800	0.000094128704467142	661.033337037448632145
0.000094125705642312	0.000094125705642312	0.000460096463075100	0.000460096463075100	0.000460096463075100	0.000094125705642312	661.044449383264804965
0.000094122709967892	0.000094122709967892	0.000460068722133800	0.000460068722133800	0.000460068722133800	0.000094122709967892	661.055561729080977784
0.000094119687333394	0.000094119687333394	0.000460041143945400	0.000460041143945400	0.000460041143945400	0.000094119687333394	661.066674074897264290
0.000094116667284423	0.000094116667284423	0.000460013677571600	0.000460013677571600	0.000460013677571600	0.000094116667284423	661.077786420713437110
0.000094113693734529	0.000094113693734529	0.000459986343307400	0.000459986343307400	0.000459986343307400	0.000094113693734529	661.088898766529609929
0.000094110673969334	0.000094110673969334	0.000459959121621000	0.000459959121621000	0.000459959121621000	0.000094110673969334	661.100011112345782749
0.000094107676010887	0.000094107676010887	0.000459931982422100	0.000459931982422100	0.000459931982422100	0.000094107676010887	661.111123458162069255
0.000094104656553171	0.000094104656553171	0.000459904920296000	0.000459904920296000	0.000459904920296000	0.000094104656553171	661.122235803978242075
0.000094101661930113	0.000094101661930113	0.000459877925759800	0.000459877925759800	0.000459877925759800	0.000094101661930113	661.133348149794414894
0.000094098664445891	0.000094098664445891	0.000459851007686100	0.000459851007686100	0.000459851007686100	0.000094098664445891	661.144460495610587714
0.000094095670080945	0.000094095670080945	0.000459824161495100	0.000459824161495100	0.000459824161495100	0.000094095670080945	661.155572841426874220
0.000094092648793552	0.000094092648793552	0.000459797369389000	0.000459797369389000	0.000459797369389000	0.000094092648793552	661.166685187243047039
0.000094089630134873	0.000094089630134873	0.000459770604912700	0.000459770604912700	0.000459770604912700	0.000094089630134873	661.177797533059219859
0.000094086657868333	0.000094086657868333	0.000459743904689400	0.000459743904689400	0.000459743904689400	0.000094086657868333	661.188909878875392678
0.000094083639468538	0.000094083639468538	0.000459717260419600	0.000459717260419600	0.000459717260419600	0.000094083639468538	661.200022224691679185
0.000094080642877633	0.000094080642877633	0.000459690645856400	0.000459690645856400	0.000459690645856400	0.000094080642877633	661.211134570507852004
0.000094077649438947	0.000094077649438947	0.000459664081124200	0.000459664081124200	0.000459664081124200	0.000094077649438947	661.222246916324024824
0.000094074653087521	0.000094074653087521	0.000459637563859600	0.000459637563859600	0.000459637563859600	0.000094074653087521	661.233359262140197643
0.000094071635354485	0.000094071635354485	0.000459611069284400	0.000459611069284400	0.000459611069284400	0.000094071635354485	661.244471607956484149
0.000094068663942146	0.000094068663942146	0.000459584618442800	0.000459584618442800	0.000459584618442800	0.000094068663942146	661.255583953772656969
0.000094065646451375	0.000094065646451375	0.000459558209799900	0.000459558209799900	0.000459558209799900	0.000094065646451375	661.266696299588829788
0.000094062650752620	0.000094062650752620	0.000459531819656000	0.000459531819656000	0.000459531819656000	0.000094062650752620	661.277808645405002608
0.000094059658131807	0.000094059658131807	0.000459505474046700	0.000459505474046700	0.000459505474046700	0.000094059658131807	661.288920991221289114
0.000094056638712664	0.000094056638712664	0.000459479149872100	0.000459479149872100	0.000459479149872100	0.000094056638712664	661.300033337037461934
0.000094053646457718	0.000094053646457718	0.000459452846115200	0.000459452846115200	0.000459452846115200	0.000094053646457718	661.311145682853634753
0.000094050651274181	0.000094050651274181	0.000459426583835400	0.000459426583835400	0.000459426583835400	0.000094050651274181	661.322258028669807572
0.000094047634702952	0.000094047634702952	0.000459400338529400	0.000459400338529400	0.000459400338529400	0.000094047634702952	661.333370374486094079
0.000094044642891910	0.000094044642891910	0.000459374111302600	0.000459374111302600	0.000459374111302600	0.000094044642891910	661.344482720302266898
0.000094041648234019	0.000094041648234019	0.000459347916018200	0.000459347916018200	0.000459347916018200	0.000094041648234019	661.355595066118439718
0.000094038656718347	0.000094038656718347	0.000459321747515900	0.000459321747515900	0.000459321747515900	0.000094038656718347	661.366707411934612537
0.000094035662264186	0.000094035662264186	0.000459295608919700	0.000459295608919700	0.000459295608919700	0.000094035662264186	661.377819757750899043
0.000094032646535981	0.000094032646535981	0.000459269476915500	0.000459269476915500	0.000459269476915500	0.000094032646535981	661.388932103567071863
0.000094029676974352	0.000094029676974352	0.000459243373049300	0.000459243373049300	0.000459243373049300	0.000094029676974352	661.400044449383244682
0.000094026661554069	0.000094026661554069	0.000459217291919200	0.000459217291919200	0.000459217291919200	0.000094026661554069	661.411156795199417502
0.000094023692276618	0.000094023692276618	0.000459191232471500	0.000459191232471500	0.000459191232471500	0.000094023692276618	661.422269141015704008
0.000094020677164217	0.000094020677164217	0.000459165194347500	0.000459165194347500	0.000459165194347500	0.000094020677164217	661.433381486831876828
0.000094017708170904	0.000094017708170904	0.000459139178185100	0.000459139178185100	0.000459139178185100	0.000094017708170904	661.444493832648049647
0.000094014693144003	0.000094014693144003	0.000459113193139600	0.000459113193139600	0.000459113193139600	0.000094014693144003	661.455606178464222467
0.000094011676005951	0.000094011676005951	0.000459087199230600	0.000459087199230600	0.000459087199230600	0.000094011676005951	661.466718524280508973
0.000094008685968164	0.000094008685968164	0.000459061218354000	0.000459061218354000	0.000459061218354000	0.000094008685968164	661.477830870096681792
0.000094005693092805	0.000094005693092805	0.000459035262404000	0.000459035262404000	0.000459035262404000	0.000094005693092805	661.488943215912854612
0.000094002703350149	0.000094002703350149	0.000459009325182400	0.000459009325182400	0.000459009325182400	0.000094002703350149	661.500055561729027431
0.000093999710771443	0.000093999710771443	0.000458983405355500	0.000458983405355500	0.000458983405355500	0.000093999710771443	661.511167907545313938
0.000093996721323878	0.000093996721323878	0.000458957502213500	0.000458957502213500	0.000458957502213500	0.000093996721323878	661.522280253361486757
0.000093993729041785	0.000093993729041785	0.000458931615348400	0.000458931615348400	0.000458931615348400	0.000093993729041785	661.533392599177659577
0.000093990739889272	0.000093990739889272	0.000458905744830200	0.000458905744830200	0.000458905744830200	0.000093990739889272	661.544504944993832396
0.000093987747766459	0.000093987747766459	0.000458879894804100	0.000458879894804100	0.000458879894804100	0.000093987747766459	661.555617290810118902
0.000093984734502041	0.000093984734502041	0.000458854042594700	0.000458854042594700	0.000458854042594700	0.000093984734502041	661.566729636626291722
0.000093981767214494	0.000093981767214494	0.000458828209949000	0.000458828209949000	0.000458828209949000	0.000093981767214494	661.577841982442464541
0.000093978754257670	0.000093978754257670	0.000458802391256700	0.000458802391256700	0.000458802391256700	0.000093978754257670	661.588954328258751048
0.000093975787384021	0.000093975787384021	0.000458776581562500	0.000458776581562500	0.000458776581562500	0.000093975787384021	661.600066674074923867
0.000093972796139812	0.000093972796139812	0.000458750799833600	0.000458750799833600	0.000458750799833600	0.000093972796139812	661.611179019891096686
0.000093969808019726	0.000093969808019726	0.000458725026109600	0.000458725026109600	0.000458725026109600	0.000093969808019726	661.622291365707269506
0.000093966817071953	0.000093966817071953	0.000458699264220700	0.000458699264220700	0.000458699264220700	0.000093966817071953	661.633403711523556012
0.000093963829246742	0.000093963829246742	0.000458673514348200	0.000458673514348200	0.000458673514348200	0.000093963829246742	661.644516057339728832
0.000093960838595214	0.000093960838595214	0.000458647776369600	0.000458647776369600	0.000458647776369600	0.000093960838595214	661.655628403155901651
0.000093957851064843	0.000093957851064843	0.000458622050084900	0.000458622050084900	0.000458622050084900	0.000093957851064843	661.666740748972074471
0.000093954860709820	0.000093954860709820	0.000458596335271800	0.000458596335271800	0.000458596335271800	0.000093954860709820	661.677853094788360977
0.000093951873474246	0.000093951873474246	0.000458570631698600	0.000458570631698600	0.000458570631698600	0.000093951873474246	661.688965440604533796
0.000093948883415540	0.000093948883415540	0.000458544939133500	0.000458544939133500	0.000458544939133500	0.000093948883415540	661.700077786420706616
0.000093945896474725	0.000093945896474725	0.000458519257344200	0.000458519257344200	0.000458519257344200	0.000093945896474725	661.711190132236879435
0.000093942906712296	0.000093942906712296	0.000458493586099900	0.000458493586099900	0.000458493586099900	0.000093942906712296	661.722302478053165942
0.000093939920066199	0.000093939920066199	0.000458467925167600	0.000458467925167600	0.000458467925167600	0.000093939920066199	661.733414823869338761
0.000093936930600008	0.000093936930600008	0.000458442274311600	0.000458442274311600	0.000458442274311600	0.000093936930600008	661.744527169685511581
0.000093933944248443	0.000093933944248443	0.000458416633284300	0.000458416633284300	0.000458416633284300	0.000093933944248443	661.755639515501684400
0.000093930955078450	0.000093930955078450	0.000458391001816900	0.000458391001816900	0.000458391001816900	0.000093930955078450	661.766751861317970906
0.000093927969021675	0.000093927969021675	0.000458365379587800	0.000458365379587800	0.000458365379587800	0.000093927969021675	661.777864207134143726
0.000093924980147841	0.000093924980147841	0.000458339766146000	0.000458339766146000	0.000458339766146000	0.000093924980147841	661.788976552950316545
0.000093921994385668	0.000093921994385668	0.000458314160582500	0.000458314160582500	0.000458314160582500	0.000093921994385668	661.800088898766489365
0.000093919005983618	0.000093919005983618	0.000458288558119100	0.000458288558119100	0.000458288558119100	0.000093919005983618	661.811201244582775871
0.000093916042018796	0.000093916042018796	0.000458262973393700	0.000458262973393700	0.000458262973393700	0.000093916042018796	661.822313590398948691
0.000093913056697674	0.000093913056697674	0.000458237408787900	0.000458237408787900	0.000458237408787900	0.000093913056697674	661.833425936215121510
0.000093910068563287	0.000093910068563287	0.000458211846062700	0.000458211846062700	0.000458211846062700	0.000093910068563287	661.844538282031294329
0.000093907083536520	0.000093907083536520	0.000458186290252000	0.000458186290252000	0.000458186290252000	0.000093907083536520	661.855650627847580836
0.000093904095698155	0.000093904095698155	0.000458160741876700	0.000458160741876700	0.000458160741876700	0.000093904095698155	661.866762973663753655
0.000093901110966001	0.000093901110966001	0.000458135200968800	0.000458135200968800	0.000458135200968800	0.000093901110966001	661.877875319479926475
0.000093898123423618	0.000093898123423618	0.000458109667364400	0.000458109667364400	0.000458109667364400	0.000093898123423618	661.888987665296099294
0.000093895138985890	0.000093895138985890	0.000458084140696300	0.000458084140696300	0.000458084140696300	0.000093895138985890	661.900100011112385801
0.000093892151739450	0.000093892151739450	0.000458058620066000	0.000458058620066000	0.000458058620066000	0.000093892151739450	661.911212356928558620
0.000093889167823534	0.000093889167823534	0.000458033100273900	0.000458033100273900	0.000458033100273900	0.000093889167823534	661.922324702744731439
0.000093886205274079	0.000093886205274079	0.000458007599183200	0.000458007599183200	0.000458007599183200	0.000093886205274079	661.933437048560904259
0.000093883218470701	0.000093883218470701	0.000457982113712900	0.000457982113712900	0.000457982113712900	0.000093883218470701	661.944549394377190765
0.000093880234767939	0.000093880234767939	0.000457956628780500	0.000457956628780500	0.000457956628780500	0.000093880234767939	661.955661740193363585
0.000093877248260404	0.000093877248260404	0.000457931148331600	0.000457931148331600	0.000457931148331600	0.000093877248260404	661.966774086009536404
0.000093874265093156	0.000093874265093156	0.000457905668359600	0.000457905668359600	0.000457905668359600	0.000093874265093156	661.977886431825709224
0.000093871303049009	0.000093871303049009	0.000457880210874700	0.000457880210874700	0.000457880210874700	0.000093871303049009	661.988998777641995730
0.000093868295772819	0.000093868295772819	0.000457854753547200	0.000457854753547200	0.000457854753547200	0.000093868295772819	662.000111123458168549
0.000093865334011848	0.000093865334011848	0.000457829300651400	0.000457829300651400	0.000457829300651400	0.000093865334011848	662.011223469274341369
0.000093862327042456	0.000093862327042456	0.000457803851506600	0.000457803851506600	0.000457803851506600	0.000093862327042456	662.022335815090514188
0.000093859366043011	0.000093859366043011	0.000457778397722200	0.000457778397722200	0.000457778397722200	0.000093859366043011	662.033448160906800695
0.000093856404705956	0.000093856404705956	0.000457752980434500	0.000457752980434500	0.000457752980434500	0.000093856404705956	662.044560506722973514
0.000093853398195739	0.000093853398195739	0.000457727557876300	0.000457727557876300	0.000457727557876300	0.000093853398195739	662.055672852539146334
0.000093850437141809	0.000093850437141809	0.000457702138547700	0.000457702138547700	0.000457702138547700	0.000093850437141809	662.066785198355319153
0.000093847430938417	0.000093847430938417	0.000457676722657500	0.000457676722657500	0.000457676722657500	0.000093847430938417	662.077897544171605659
0.000093844470435916	0.000093844470435916	0.000457651305681400	0.000457651305681400	0.000457651305681400	0.000093844470435916	662.089009889987778479
0.000093841488643873	0.000093841488643873	0.000457625908819300	0.000457625908819300	0.000457625908819300	0.000093841488643873	662.100122235803951298
0.000093838504297180	0.000093838504297180	0.000457600505299200	0.000457600505299200	0.000457600505299200	0.000093838504297180	662.111234581620124118
0.000093835544226593	0.000093835544226593	0.000457575114379700	0.000457575114379700	0.000457575114379700	0.000093835544226593	662.122346927436410624
0.000093832562874810	0.000093832562874810	0.000457549738684900	0.000457549738684900	0.000457549738684900	0.000093832562874810	662.133459273252583444
0.000093829578730233	0.000093829578730233	0.000457524359416500	0.000457524359416500	0.000457524359416500	0.000093829578730233	662.144571619068756263
0.000093826597949919	0.000093826597949919	0.000457498976530900	0.000457498976530900	0.000457498976530900	0.000093826597949919	662.155683964885042769
0.000093823637847183	0.000093823637847183	0.000457473606860000	0.000457473606860000	0.000457473606860000	0.000093823637847183	662.166796310701215589
0.000093820657372721	0.000093820657372721	0.000457448245297600	0.000457448245297600	0.000457448245297600	0.000093820657372721	662.177908656517388408
0.000093817698129880	0.000093817698129880	0.000457422892678800	0.000457422892678800	0.000457422892678800	0.000093817698129880	662.189021002333561228
0.000093814714722374	0.000093814714722374	0.000457397550554000	0.000457397550554000	0.000457397550554000	0.000093814714722374	662.200133348149847734
0.000093811734696156	0.000093811734696156	0.000457372200345200	0.000457372200345200	0.000457372200345200	0.000093811734696156	662.211245693966020553
0.000093808775619602	0.000093808775619602	0.000457346868518600	0.000457346868518600	0.000457346868518600	0.000093808775619602	662.222358039782193373
0.000093805771558720	0.000093805771558720	0.000457321532948200	0.000457321532948200	0.000457321532948200	0.000093805771558720	662.233470385598366192
0.000093802813071539	0.000093802813071539	0.000457296193808000	0.000457296193808000	0.000457296193808000	0.000093802813071539	662.244582731414652699
0.000093799833333581	0.000093799833333581	0.000457270872699800	0.000457270872699800	0.000457270872699800	0.000093799833333581	662.255695077230825518
0.000093796851085243	0.000093796851085243	0.000457245542955900	0.000457245542955900	0.000457245542955900	0.000093796851085243	662.266807423046998338
0.000093793893029596	0.000093793893029596	0.000457220223299600	0.000457220223299600	0.000457220223299600	0.000093793893029596	662.277919768863171157
0.000093790914049126	0.000093790914049126	0.000457194912009000	0.000457194912009000	0.000457194912009000	0.000093790914049126	662.289032114679457663
0.000093787955960580	0.000093787955960580	0.000457169612441500	0.000457169612441500	0.000457169612441500	0.000093787955960580	662.300144460495630483
0.000093784952970175	0.000093784952970175	0.000457144305749800	0.000457144305749800	0.000457144305749800	0.000093784952970175	662.311256806311803302
0.000093781996093408	0.000093781996093408	0.000457118984021400	0.000457118984021400	0.000457118984021400	0.000093781996093408	662.322369152127976122
0.000093779062122407	0.000093779062122407	0.000457093705656200	0.000457093705656200	0.000457093705656200	0.000093779062122407	662.333481497944262628
0.000093776059589746	0.000093776059589746	0.000457068428503500	0.000457068428503500	0.000457068428503500	0.000093776059589746	662.344593843760435448
0.000093773102539881	0.000093773102539881	0.000457043139842300	0.000457043139842300	0.000457043139842300	0.000093773102539881	662.355706189576608267
0.000093770124267303	0.000093770124267303	0.000457017866768300	0.000457017866768300	0.000457017866768300	0.000093770124267303	662.366818535392781087
0.000093767143515696	0.000093767143515696	0.000456992583535600	0.000456992583535600	0.000456992583535600	0.000093767143515696	662.377930881209067593
0.000093764186897225	0.000093764186897225	0.000456967309167900	0.000456967309167900	0.000456967309167900	0.000093764186897225	662.389043227025240412
0.000093761209408950	0.000093761209408950	0.000456942042121800	0.000456942042121800	0.000456942042121800	0.000093761209408950	662.400155572841413232
0.000093758252730135	0.000093758252730135	0.000456916785871300	0.000456916785871300	0.000456916785871300	0.000093758252730135	662.411267918657586051
0.000093755251267244	0.000093755251267244	0.000456891521956800	0.000456891521956800	0.000456891521956800	0.000093755251267244	662.422380264473872558
0.000093752295533654	0.000093752295533654	0.000456866246009400	0.000456866246009400	0.000456866246009400	0.000093752295533654	662.433492610290045377
0.000093749339980161	0.000093749339980161	0.000456840990099700	0.000456840990099700	0.000456840990099700	0.000093749339980161	662.444604956106218197
0.000093746386535359	0.000093746386535359	0.000456815750981300	0.000456815750981300	0.000456815750981300	0.000093746386535359	662.455717301922391016
0.000093743406979780	0.000093743406979780	0.000456790510594900	0.000456790510594900	0.000456790510594900	0.000093743406979780	662.466829647738677522
