beta_para	beta_perp	delta_para	delta_perp	delta	beta	energy
0.000001638860038544	0.000001638860038544	0.000034571774825034	0.000034571774825034	0.000034571774825034	0.000001638860038544	2460.000000000000000000
0.000001638864871378	0.000001638864871378	0.000034570870319913	0.000034570870319913	0.000034570870319913	0.000001638864871378	2460.010000000000218279
0.000001638872231100	0.000001638872231100	0.000034569980092195	0.000034569980092195	0.000034569980092195	0.000001638872231100	2460.019999999999981810
0.000001638877063648	0.000001638877063648	0.000034569096391234	0.000034569096391234	0.000034569096391234	0.000001638877063648	2460.030000000000200089
0.000001638879217251	0.000001638879217251	0.000034568213719523	0.000034568213719523	0.000034568213719523	0.000001638879217251	2460.039999999999963620
0.000001638884043545	0.000001638884043545	0.000034567331779143	0.000034567331779143	0.000034567331779143	0.000001638884043545	2460.050000000000181899
0.000001638888875717	0.000001638888875717	0.000034566452095947	0.000034566452095947	0.000034566452095947	0.000001638888875717	2460.059999999999945430
0.000001638893555925	0.000001638893555925	0.000034565573672002	0.000034565573672002	0.000034565573672002	0.000001638893555925	2460.070000000000163709
0.000001638898387833	0.000001638898387833	0.000034564696156387	0.000034564696156387	0.000034564696156387	0.000001638898387833	2460.079999999999927240
0.000001638903219609	0.000001638903219609	0.000034563818994431	0.000034563818994431	0.000034563818994431	0.000001638903219609	2460.090000000000145519
0.000001638910578106	0.000001638910578106	0.000034562944394368	0.000034562944394368	0.000034562944394368	0.000001638910578106	2460.099999999999909051
0.000001638912730935	0.000001638912730935	0.000034562070318514	0.000034562070318514	0.000034562070318514	0.000001638912730935	2460.110000000000127329
0.000001638917556303	0.000001638917556303	0.000034561194856093	0.000034561194856093	0.000034561194856093	0.000001638917556303	2460.119999999999890861
0.000001638922387548	0.000001638922387548	0.000034560320389955	0.000034560320389955	0.000034560320389955	0.000001638922387548	2460.130000000000109139
0.000001638927218661	0.000001638927218661	0.000034559446370932	0.000034559446370932	0.000034559446370932	0.000001638927218661	2460.139999999999872671
0.000001638931897820	0.000001638931897820	0.000034558572523806	0.000034558572523806	0.000034558572523806	0.000001638931897820	2460.150000000000090949
0.000001638936728669	0.000001638936728669	0.000034557698299654	0.000034557698299654	0.000034557698299654	0.000001638936728669	2460.159999999999854481
0.000001638944086096	0.000001638944086096	0.000034556826090448	0.000034556826090448	0.000034556826090448	0.000001638944086096	2460.170000000000072760
0.000001638946238151	0.000001638946238151	0.000034555953423168	0.000034555953423168	0.000034555953423168	0.000001638946238151	2460.179999999999836291
0.000001638953595273	0.000001638953595273	0.000034555080781039	0.000034555080781039	0.000034555080781039	0.000001638953595273	2460.190000000000054570
0.000001638955892912	0.000001638955892912	0.000034554208716940	0.000034554208716940	0.000034554208716940	0.000001638955892912	2460.199999999999818101
0.000001638960723098	0.000001638960723098	0.000034553334391215	0.000034553334391215	0.000034553334391215	0.000001638960723098	2460.210000000000036380
0.000001638968079761	0.000001638968079761	0.000034552462384262	0.000034552462384262	0.000034552462384262	0.000001638968079761	2460.219999999999799911
0.000001638970231262	0.000001638970231262	0.000034551589698436	0.000034551589698436	0.000034551589698436	0.000001638970231262	2460.230000000000018190
0.000001638977587619	0.000001638977587619	0.000034550716194010	0.000034550716194010	0.000034550716194010	0.000001638977587619	2460.239999999999781721
0.000001638982417256	0.000001638982417256	0.000034549843801731	0.000034549843801731	0.000034549843801731	0.000001638982417256	2460.250000000000000000
0.000001638989773286	0.000001638989773286	0.000034548972492203	0.000034548972492203	0.000034548972492203	0.000001638989773286	2460.260000000000218279
0.000001638991924325	0.000001638991924325	0.000034548100268971	0.000034548100268971	0.000034548100268971	0.000001638991924325	2460.269999999999981810
0.000001638999280050	0.000001638999280050	0.000034547227168542	0.000034547227168542	0.000034547227168542	0.000001638999280050	2460.280000000000200089
0.000001639004109136	0.000001639004109136	0.000034546355652382	0.000034546355652382	0.000034546355652382	0.000001639004109136	2460.289999999999963620
0.000001639008932081	0.000001639008932081	0.000034545483386566	0.000034545483386566	0.000034545483386566	0.000001639008932081	2460.300000000000181899
0.000001639013760902	0.000001639013760902	0.000034544610852619	0.000034544610852619	0.000034544610852619	0.000001639013760902	2460.309999999999945430
0.000001639018437790	0.000001639018437790	0.000034543737907229	0.000034543737907229	0.000034543737907229	0.000001639018437790	2460.320000000000163709
0.000001639023266347	0.000001639023266347	0.000034542863988895	0.000034542863988895	0.000034542863988895	0.000001639023266347	2460.329999999999927240
0.000001639030621134	0.000001639030621134	0.000034541990948886	0.000034541990948886	0.000034541990948886	0.000001639030621134	2460.340000000000145519
0.000001639035449405	0.000001639035449405	0.000034541118247844	0.000034541118247844	0.000034541118247844	0.000001639035449405	2460.349999999999909051
0.000001639042803865	0.000001639042803865	0.000034540246360846	0.000034540246360846	0.000034540246360846	0.000001639042803865	2460.360000000000127329
0.000001639044953756	0.000001639044953756	0.000034539373329343	0.000034539373329343	0.000034539373329343	0.000001639044953756	2460.369999999999890861
0.000001639052307911	0.000001639052307911	0.000034538499138962	0.000034538499138962	0.000034538499138962	0.000001639052307911	2460.380000000000109139
0.000001639057135632	0.000001639057135632	0.000034537625714869	0.000034537625714869	0.000034537625714869	0.000001639057135632	2460.389999999999872671
0.000001639064489460	0.000001639064489460	0.000034536752521562	0.000034536752521562	0.000034536752521562	0.000001639064489460	2460.400000000000090949
0.000001639069316896	0.000001639069316896	0.000034535879624816	0.000034535879624816	0.000034535879624816	0.000001639069316896	2460.409999999999854481
0.000001639076670397	0.000001639076670397	0.000034535008112526	0.000034535008112526	0.000034535008112526	0.000001639076670397	2460.420000000000072760
0.000001639076287396	0.000001639076287396	0.000034534134233984	0.000034534134233984	0.000034534134233984	0.000001639076287396	2460.429999999999836291
0.000001639083640612	0.000001639083640612	0.000034533257979830	0.000034533257979830	0.000034533257979830	0.000001639083640612	2460.440000000000054570
0.000001639088467519	0.000001639088467519	0.000034532383081578	0.000034532383081578	0.000034532383081578	0.000001639088467519	2460.449999999999818101
0.000001639095820408	0.000001639095820408	0.000034531508431512	0.000034531508431512	0.000034531508431512	0.000001639095820408	2460.460000000000036380
0.000001639100647029	0.000001639100647029	0.000034530633942499	0.000034530633942499	0.000034530633942499	0.000001639100647029	2460.469999999999799911
0.000001639107999592	0.000001639107999592	0.000034529760126336	0.000034529760126336	0.000034529760126336	0.000001639107999592	2460.480000000000018190
0.000001639110148093	0.000001639110148093	0.000034528885029745	0.000034528885029745	0.000034528885029745	0.000001639110148093	2460.489999999999781721
0.000001639117500351	0.000001639117500351	0.000034528008630532	0.000034528008630532	0.000034528008630532	0.000001639117500351	2460.500000000000000000
0.000001639122326422	0.000001639122326422	0.000034527132831096	0.000034527132831096	0.000034527132831096	0.000001639122326422	2460.510000000000218279
0.000001639129678353	0.000001639129678353	0.000034526257042286	0.000034526257042286	0.000034526257042286	0.000001639129678353	2460.519999999999981810
0.000001639134504138	0.000001639134504138	0.000034525381176701	0.000034525381176701	0.000034525381176701	0.000001639134504138	2460.530000000000200089
0.000001639141855742	0.000001639141855742	0.000034524505205122	0.000034524505205122	0.000034524505205122	0.000001639141855742	2460.539999999999963620
0.000001639146681241	0.000001639146681241	0.000034523629128437	0.000034523629128437	0.000034523629128437	0.000001639146681241	2460.550000000000181899
0.000001639154032519	0.000001639154032519	0.000034522753020868	0.000034522753020868	0.000034522753020868	0.000001639154032519	2460.559999999999945430
0.000001639158705963	0.000001639158705963	0.000034521877249361	0.000034521877249361	0.000034521877249361	0.000001639158705963	2460.570000000000163709
0.000001639163531045	0.000001639163531045	0.000034520999505198	0.000034520999505198	0.000034520999505198	0.000001639163531045	2460.579999999999927240
0.000001639170881844	0.000001639170881844	0.000034520122182557	0.000034520122182557	0.000034520122182557	0.000001639170881844	2460.590000000000145519
0.000001639175706641	0.000001639175706641	0.000034519244745809	0.000034519244745809	0.000034519244745809	0.000001639175706641	2460.599999999999909051
0.000001639183057113	0.000001639183057113	0.000034518367109773	0.000034518367109773	0.000034518367109773	0.000001639183057113	2460.610000000000127329
0.000001639187881623	0.000001639187881623	0.000034517489195184	0.000034517489195184	0.000034517489195184	0.000001639187881623	2460.619999999999890861
0.000001639195231769	0.000001639195231769	0.000034516610508990	0.000034516610508990	0.000034516610508990	0.000001639195231769	2460.630000000000109139
0.000001639202581740	0.000001639202581740	0.000034515733362237	0.000034515733362237	0.000034515733362237	0.000001639202581740	2460.639999999999872671
0.000001639207405812	0.000001639207405812	0.000034514855521280	0.000034514855521280	0.000034514855521280	0.000001639207405812	2460.650000000000090949
0.000001639214755457	0.000001639214755457	0.000034513978025522	0.000034513978025522	0.000034513978025522	0.000001639214755457	2460.659999999999854481
0.000001639216901802	0.000001639216901802	0.000034513098949278	0.000034513098949278	0.000034513098949278	0.000001639216901802	2460.670000000000072760
0.000001639224251142	0.000001639224251142	0.000034512217814310	0.000034512217814310	0.000034512217814310	0.000001639224251142	2460.679999999999836291
0.000001639231600308	0.000001639231600308	0.000034511338832493	0.000034511338832493	0.000034511338832493	0.000001639231600308	2460.690000000000054570
0.000001639236423678	0.000001639236423678	0.000034510459117073	0.000034510459117073	0.000034510459117073	0.000001639236423678	2460.699999999999818101
0.000001639243772518	0.000001639243772518	0.000034509579051122	0.000034509579051122	0.000034509579051122	0.000001639243772518	2460.710000000000036380
0.000001639248595601	0.000001639248595601	0.000034508698598483	0.000034508698598483	0.000034508698598483	0.000001639248595601	2460.719999999999799911
0.000001639255944114	0.000001639255944114	0.000034507817267994	0.000034507817267994	0.000034507817267994	0.000001639255944114	2460.730000000000018190
0.000001639263292454	0.000001639263292454	0.000034506937346878	0.000034506937346878	0.000034506937346878	0.000001639263292454	2460.739999999999781721
0.000001639268115099	0.000001639268115099	0.000034506056522460	0.000034506056522460	0.000034506056522460	0.000001639268115099	2460.750000000000000000
0.000001639275463112	0.000001639275463112	0.000034505175255121	0.000034505175255121	0.000034505175255121	0.000001639275463112	2460.760000000000218279
0.000001639280285471	0.000001639280285471	0.000034504293533736	0.000034504293533736	0.000034504293533736	0.000001639280285471	2460.769999999999981810
0.000001639287633158	0.000001639287633158	0.000034503410873182	0.000034503410873182	0.000034503410873182	0.000001639287633158	2460.780000000000200089
0.000001639294980670	0.000001639294980670	0.000034502529551042	0.000034502529551042	0.000034502529551042	0.000001639294980670	2460.789999999999963620
0.000001639299802591	0.000001639299802591	0.000034501647206458	0.000034501647206458	0.000034501647206458	0.000001639299802591	2460.800000000000181899
0.000001639307149777	0.000001639307149777	0.000034500763826209	0.000034500763826209	0.000034500763826209	0.000001639307149777	2460.809999999999945430
0.000001639314496789	0.000001639314496789	0.000034499881738092	0.000034499881738092	0.000034499881738092	0.000001639314496789	2460.820000000000163709
0.000001639319318272	0.000001639319318272	0.000034498998597311	0.000034498998597311	0.000034498998597311	0.000001639319318272	2460.829999999999927240
0.000001639326664957	0.000001639326664957	0.000034498114397100	0.000034498114397100	0.000034498114397100	0.000001639326664957	2460.840000000000145519
0.000001639334011470	0.000001639334011470	0.000034497231468397	0.000034497231468397	0.000034497231468397	0.000001639334011470	2460.849999999999909051
0.000001639338832513	0.000001639338832513	0.000034496347467526	0.000034496347467526	0.000034496347467526	0.000001639338832513	2460.860000000000127329
0.000001639346178699	0.000001639346178699	0.000034495462387829	0.000034495462387829	0.000034495462387829	0.000001639346178699	2460.869999999999890861
0.000001639353524711	0.000001639353524711	0.000034494578558817	0.000034494578558817	0.000034494578558817	0.000001639353524711	2460.880000000000109139
0.000001639358345316	0.000001639358345316	0.000034493693634133	0.000034493693634133	0.000034493693634133	0.000001639358345316	2460.889999999999872671
0.000001639365691002	0.000001639365691002	0.000034492807601528	0.000034492807601528	0.000034492807601528	0.000001639365691002	2460.900000000000090949
0.000001639373036514	0.000001639373036514	0.000034491922779616	0.000034491922779616	0.000034491922779616	0.000001639373036514	2460.909999999999854481
0.000001639377856681	0.000001639377856681	0.000034491036797708	0.000034491036797708	0.000034491036797708	0.000001639377856681	2460.920000000000072760
0.000001639385201866	0.000001639385201866	0.000034490149573094	0.000034490149573094	0.000034490149573094	0.000001639385201866	2460.929999999999836291
0.000001639392546878	0.000001639392546878	0.000034489262889524	0.000034489262889524	0.000034489262889524	0.000001639392546878	2460.940000000000054570
0.000001639399897723	0.000001639399897723	0.000034488376215333	0.000034488376215333	0.000034488376215333	0.000001639399897723	2460.949999999999818101
0.000001639407242387	0.000001639407242387	0.000034487489541734	0.000034487489541734	0.000034487489541734	0.000001639407242387	2460.960000000000036380
0.000001639414586879	0.000001639414586879	0.000034486603380549	0.000034486603380549	0.000034486603380549	0.000001639414586879	2460.969999999999799911
0.000001639419406148	0.000001639419406148	0.000034485715919299	0.000034485715919299	0.000034485715919299	0.000001639419406148	2460.980000000000018190
0.000001639426750313	0.000001639426750313	0.000034484827176158	0.000034484827176158	0.000034484827176158	0.000001639426750313	2460.989999999999781721
0.000001639434094304	0.000001639434094304	0.000034483939032421	0.000034483939032421	0.000034483939032421	0.000001639434094304	2461.000000000000000000
0.000001639441438122	0.000001639441438122	0.000034483051492003	0.000034483051492003	0.000034483051492003	0.000001639441438122	2461.010000000000218279
0.000001639446256799	0.000001639446256799	0.000034482162688864	0.000034482162688864	0.000034482162688864	0.000001639446256799	2461.019999999999981810
0.000001639453600291	0.000001639453600291	0.000034481272661501	0.000034481272661501	0.000034481272661501	0.000001639453600291	2461.030000000000200089
0.000001639460943609	0.000001639460943609	0.000034480383736652	0.000034480383736652	0.000034480383736652	0.000001639460943609	2461.039999999999963620
0.000001639465761848	0.000001639465761848	0.000034479493529806	0.000034479493529806	0.000034479493529806	0.000001639465761848	2461.050000000000181899
0.000001639473104839	0.000001639473104839	0.000034478601900293	0.000034478601900293	0.000034478601900293	0.000001639473104839	2461.059999999999945430
0.000001639480447657	0.000001639480447657	0.000034477710139598	0.000034477710139598	0.000034477710139598	0.000001639480447657	2461.070000000000163709
0.000001639490321151	0.000001639490321151	0.000034476820016894	0.000034476820016894	0.000034476820016894	0.000001639490321151	2461.079999999999927240
0.000001639495138778	0.000001639495138778	0.000034475929565346	0.000034475929565346	0.000034475929565346	0.000001639495138778	2461.090000000000145519
0.000001639502481075	0.000001639502481075	0.000034475036383922	0.000034475036383922	0.000034475036383922	0.000001639502481075	2461.099999999999909051
0.000001639512499684	0.000001639512499684	0.000034474144799350	0.000034474144799350	0.000034474144799350	0.000001639512499684	2461.110000000000127329
0.000001639519841613	0.000001639519841613	0.000034473254874117	0.000034473254874117	0.000034473254874117	0.000001639519841613	2461.119999999999890861
0.000001639524658627	0.000001639524658627	0.000034472362823945	0.000034472362823945	0.000034472362823945	0.000001639524658627	2461.130000000000109139
0.000001639532000229	0.000001639532000229	0.000034471469203009	0.000034471469203009	0.000034471469203009	0.000001639532000229	2461.139999999999872671
0.000001639539341658	0.000001639539341658	0.000034470575885105	0.000034470575885105	0.000034470575885105	0.000001639539341658	2461.150000000000090949
0.000001639546682914	0.000001639546682914	0.000034469682339590	0.000034469682339590	0.000034469682339590	0.000001639546682914	2461.159999999999854481
0.000001639554030001	0.000001639554030001	0.000034468788492410	0.000034468788492410	0.000034468788492410	0.000001639554030001	2461.170000000000072760
0.000001639561370909	0.000001639561370909	0.000034467894297944	0.000034467894297944	0.000034467894297944	0.000001639561370909	2461.179999999999836291
0.000001639568711644	0.000001639568711644	0.000034466999680294	0.000034466999680294	0.000034466999680294	0.000001639568711644	2461.190000000000054570
0.000001639576052206	0.000001639576052206	0.000034466104122876	0.000034466104122876	0.000034466104122876	0.000001639576052206	2461.199999999999818101
0.000001639586068861	0.000001639586068861	0.000034465210068467	0.000034465210068467	0.000034465210068467	0.000001639586068861	2461.210000000000036380
0.000001639590884498	0.000001639590884498	0.000034464315677190	0.000034464315677190	0.000034464315677190	0.000001639590884498	2461.219999999999799911
0.000001639598224538	0.000001639598224538	0.000034463418955216	0.000034463418955216	0.000034463418955216	0.000001639598224538	2461.230000000000018190
0.000001639605564405	0.000001639605564405	0.000034462521749863	0.000034462521749863	0.000034462521749863	0.000001639605564405	2461.239999999999781721
0.000001639615434597	0.000001639615434597	0.000034461625449717	0.000034461625449717	0.000034461625449717	0.000001639615434597	2461.250000000000000000
0.000001639622774097	0.000001639622774097	0.000034460730465266	0.000034460730465266	0.000034460730465266	0.000001639622774097	2461.260000000000218279
0.000001639627588969	0.000001639627588969	0.000034459832576429	0.000034459832576429	0.000034459832576429	0.000001639627588969	2461.269999999999981810
0.000001639637604257	0.000001639637604257	0.000034458934231337	0.000034458934231337	0.000034458934231337	0.000001639637604257	2461.280000000000200089
0.000001639644943234	0.000001639644943234	0.000034458037298794	0.000034458037298794	0.000034458037298794	0.000001639644943234	2461.289999999999963620
0.000001639652282039	0.000001639652282039	0.000034457139323499	0.000034457139323499	0.000034457139323499	0.000001639652282039	2461.300000000000181899
0.000001639659620670	0.000001639659620670	0.000034456240781798	0.000034456240781798	0.000034456240781798	0.000001639659620670	2461.309999999999945430
