beta_para	beta_perp	delta_para	delta_perp	delta	beta	energy
0.0001460723543848	0.0001460723543848	-0.00339210890301272	-0.00337519361929024	-0.00338083204719776	0.0001460723543848	269.25
0.00014608441547096	0.00014608093002072	-0.00339422290822968	-0.0033770766399989598	-0.00338279206274256	0.00014608209183752	269.2592923605613
0.00014611968544456003	0.00014610582832704	-0.0033963258371452806	-0.0033789494376851997	-0.00338474157083856	0.00014611044736624002	269.2685847211225
0.00014615491899224	0.00014613027148136	-0.00339841579136624	-0.0033808125371731206	-0.0033866802885708005	0.00014613848731832	269.2778770816838
0.00014618945152496	0.00014615478565608	-0.0034005015884989603	-0.0033826722951804003	-0.0033886153929532804	0.00014616634094568	269.28716944224504
0.00014622495199624	0.00014617948876576	-0.00340258529628864	-0.00338453032826824	-0.00339054865094168	0.00014619464317592	269.29646180280633
0.00014625995506999998	0.0001462045226068	-0.00340466788484032	-0.0033863873585868003	-0.003392480867338	0.00014622300009456	269.3057541633676
0.00014629519900272002	0.00014622948620808	-0.0034067507059115203	-0.0033882439313368	-0.00339441285619504	0.00014625139047296	269.31504652392886
0.00014633081498512002	0.0001462540905416	-0.00340883418128976	-0.0033901010221963203	-0.0033963454085608	0.00014627966535608002	269.32433888449015
0.0001463663356448	0.0001462789775376	-0.0034109191649944	-0.0033919594078876004	-0.0033982793269232005	0.00014630809690664002	269.3336312450514
0.00014640124950272	0.00014630391897736	-0.0034130094476635207	-0.0033938209032694402	-0.00340021708473416	0.00014633636248583999	269.34292360561267
0.00014644642785232	0.00014633486264536	-0.0034151022707636005	-0.0033956839425706405	-0.00340215671863496	0.00014637205104768003	269.352215966174
0.00014649630660464	0.00014636895048488	-0.00341719095644832	-0.0033975446800772803	-0.0034040934388676804	0.0001464114025248	269.3615083267352
0.00014654564739264003	0.00014640307894504	-0.00341927688119384	-0.00339940353528184	-0.0034060279839192003	0.00014645060176096	269.3708006872965
0.00014659605462728003	0.00014643734855896	-0.0034213617074999206	-0.00340126182082464	-0.00340796178304976	0.00014649025058176	269.3800930478577
0.00014664599322064	0.00014647195457584002	-0.00342344579805784	-0.0034031196754332003	-0.00340989504964144	0.00014652996745744	269.389385408419
0.00014669640663640001	0.00014650614460600002	-0.00342552968761096	-0.0034049775055405604	-0.00341182823289736	0.0001465695652828	269.39867776898024
0.0001467463099264	0.00014654059787312	-0.00342761371380632	-0.0034068356351324	-0.00341376166135704	0.00014660916855752	269.4079701295415
0.00014679672956248002	0.00014657494055544002	-0.00342969816001456	-0.0034086940146401605	-0.0034156953964316	0.00014664887022448002	269.4172624901028
0.00014684701347552001	0.00014660904313520002	-0.0034317828325245605	-0.00341055314264064	-0.0034176297059352804	0.00014668836658200001	269.42655485066405
0.00014689685342656	0.00014664381614784	-0.0034338684751583203	-0.0034124128250153604	-0.0034195647083963203	0.00014672816190744	269.43584721122534
0.000146947538096	0.00014667825369896	-0.0034359549741188804	-0.00341427299286224	-0.00342150031994776	0.00014676801516464	269.44513957178657
0.00014699799741968	0.00014671296173264002	-0.0034380421748159205	-0.00341613382909344	-0.00342343661100096	0.00014680797362832	269.45443193234786
0.00014704903007904002	0.00014674721991176002	-0.0034401301132668	-0.00341799559096616	-0.0034253737650664	0.00014684782330088002	269.46372429290915
0.00014709962540056002	0.00014678211267152001	-0.0034422188239116806	-0.0034198583234824804	-0.0034273118236255204	0.00014688795024784	269.4730166534704
0.00014715028070688002	0.00014681700988168002	-0.00344430880735936	-0.0034217216547323204	-0.0034292507056080004	0.00014692810015672	269.48230901403167
0.00014720127437216	0.00014685168619296002	-0.00344639992192944	-0.00342358601903984	-0.0034311906533364004	0.000146968215586	269.4916013745929
0.00014725251244144	0.00014688684642616	-0.0034484918590052	-0.0034254514187197597	-0.0034331315654816	0.00014700873509792002	269.5008937351542
0.00014730315877704001	0.00014692225738760002	-0.00345058508019232	-0.0034273173891341603	-0.00343507328615352	0.00014704922451744002	269.5101860957155
0.00014735420945472	0.00014695712020416002	-0.0034526800752224802	-0.0034291842898728	-0.0034370162183226406	0.00014708948328768002	269.5194784562767
0.00014740634162552002	0.00014699214684424	-0.00345477598605752	-0.00343105250721912	-0.00343896033349856	0.00014713021177136	269.528770816838
0.00014745814729424	0.00014702746796512	-0.00345687247672848	-0.00343292178807992	-0.0034409053509628002	0.00014717102774144	269.53806317739924
0.00014750934824208002	0.00014706298610184002	-0.00345897045987112	-0.0034347918587611203	-0.00344285139246448	0.00014721177348192002	269.5473555379605
0.00014756112978384	0.00014709791525064	-0.00346106987268512	-0.0034366632649662403	-0.00344479880087248	0.00014725232009504003	269.5566478985218
0.00014761248449112	0.00014713389859864	-0.0034631705685411202	-0.0034385357639048	-0.0034467473654502404	0.00014729342722944003	269.56594025908305
0.00014766368508672002	0.00014716940839616002	-0.00346527340464984	-0.0034404089029745604	-0.0034486970701996	0.00014733416729304	269.57523261964434
0.00014771663133728	0.00014720447534192	-0.0034673774075904802	-0.00344228357953768	-0.00345064818888864	0.00014737519400704	269.5845249802056
0.00014776889697184	0.0001472403109972	-0.00346948188412608	-0.00344415955304688	-0.00345260033007328	0.00014741650632208	269.59381734076686
0.00014782018033288	0.00014727600513264	-0.00347158840593376	-0.00344603640648904	-0.0034545537396372798	0.00014745739686608002	269.6031097013281
0.0001478727405132	0.0001473115078572	-0.00347369673657952	-0.00344791454121376	-0.00345650860633568	0.00014749858540920001	269.6124020618894
0.00014792515428920002	0.00014734712296120002	-0.0034758060949880002	-0.0034497940428592	-0.00345846472690216	0.00014753980007056	269.6216944224507
0.00014797734820144	0.00014738272157552	-0.00347791696992456	-0.00345167507337776	-0.0034604223722267203	0.00014758093045088	269.6309867830119
0.00014802928770192	0.00014741929496288	-0.0034800300205397603	-0.00345355707030272	-0.0034623813870484003	0.00014762262587592002	269.6402791435732
0.00014808301981752002	0.00014745522535872	-0.00348214406079952	-0.00345543979308936	-0.0034643412156594405	0.00014766449017832	269.6495715041344
0.00014813463843952002	0.0001474904741616	-0.0034842596876564	-0.0034573245117411203	-0.00346630290371288	0.0001477051955876	269.6588638646957
0.00014818831764008	0.00014752731376608	-0.0034863770817584005	-0.00345921056105368	-0.00346826606795528	0.00014774764839072001	269.668156225257
0.00014824061999984	0.00014756366754312	-0.00348849558555088	-0.00346109704728232	-0.00347022989337184	0.00014778931836200002	269.67744858581824
0.00014829312889856	0.00014759893086008	-0.0034906164371139997	-0.00346298542856424	-0.0034721957647475205	0.00014783033020624	269.6867409463796
0.00014834637353296	0.00014763547951584003	-0.0034927390018168803	-0.0034648755724090404	-0.0034741633822116	0.00014787244418824002	269.6960333069408
0.00014839983728848	0.00014767205839416	-0.00349486283321208	-0.0034667665506252	-0.0034761319781541605	0.00014791465135896	269.70532566750205
0.00014845307574904	0.00014770836893864003	-0.0034969880979212	-0.00346865875737568	-0.0034781018708908797	0.00014795660454208	269.71461802806334
0.00014850597026616	0.0001477444813308	-0.0034991153553472	-0.00347055260677	-0.0034800735229624	0.00014799831097592002	269.7239103886246
0.00014855963188376	0.00014778101855984	-0.0035012441575762404	-0.0034724480752908004	-0.0034820467693859204	0.00014804055633448	269.73320274918586
0.0001486119443716	0.00014781805035936	-0.0035033752923004802	-0.0034743445841296005	-0.0034840214868532	0.0001480826816968	269.7424951097471
0.00014866655460232	0.00014785456262568	-0.00350550843097008	-0.00347624231010344	-0.0034859976837256002	0.00014812522661792	269.7517874703084
0.00014872075410328	0.00014789123037928	-0.00350764239301872	-0.0034781415524864803	-0.0034879751659972003	0.00014816773828728	269.7610798308697
0.00014877490630296002	0.000147927653186	-0.00350977784139448	-0.00348004240990392	-0.0034899542204008	0.00014821007089168	269.7703721914309
0.00014882855757888003	0.00014796455662160002	-0.00351191502926448	-0.00348194492366984	-0.0034919349588680803	0.00014825255694072	269.7796645519922
0.000148882120664	0.00014800187940288	-0.0035140542737436805	-0.00348384857603744	-0.00349391714193952	0.00014829529315656	269.78895691255343
0.00014893557052064	0.00014803894290544	-0.0035161957949389603	-0.0034857534084477603	-0.00349590087061152	0.00014833781877720002	269.7982492731147
0.000148989749856	0.00014807590263096	-0.0035183395315559205	-0.0034876597349211198	-0.00349788633379936	0.00014838051837264	269.807541633676
0.00014904503517008	0.00014811279912088	-0.0035204842381124004	-0.0034895677012069604	-0.0034998732135088	0.00014842354447056	269.81683399423724
0.00014909856259544003	0.00014815009541752002	-0.00352263074102872	-0.00349147701014056	-0.00350186158710328	0.00014846625114344	269.82612635479853
0.00014915329249016	0.00014818671580664	-0.0035247796243675204	-0.0034933879992009604	-0.0035038518742564802	0.00014850890803448	269.83541871535976
0.00014920787921704002	0.00014822412747784	-0.0035269301037788806	-0.00349530072981592	-0.00350584385447024	0.00014855204472424	269.84471107592105
0.00014926259957608002	0.00014826141856488003	-0.00352908267957536	-0.0034972148923844803	-0.0035078374881148	0.00014859514556864	269.85400343648234
0.00014931833761064003	0.00014829924834656002	-0.0035312364715316003	-0.0034991304624967198	-0.0035098324655083203	0.00014863894476792002	269.8632957970436
0.000149372455468	0.00014833698842416	-0.0035333919930040005	-0.0035010471368958403	-0.0035118287555985605	0.00014868214410544	269.87258815760487
0.00014942710190192	0.00014837419416904	-0.00353555016844528	-0.00350296547399488	-0.00351382703881168	0.00014872516341336002	269.8818805181661
0.00014948210188208002	0.00014841178304384001	-0.0035377104191117604	-0.0035048855714017602	-0.00351582718730512	0.00014876855598992	269.8911728787274
0.00014953777623752002	0.00014844928794312002	-0.0035398723043962403	-0.0035068073163072	-0.00351782897900352	0.00014881211737456	269.9004652392887
0.00014959310376872002	0.00014848731595696002	-0.0035420357926256004	-0.0035087305880232805	-0.0035198323228907203	0.00014885591189424	269.9097575998499
0.00014964830952608	0.0001485252544968	-0.00354420140153408	-0.0035106552094265604	-0.0035218372734624	0.0001488996061732	269.9190499604112
0.00014970373418928	0.00014856326374352002	-0.00354636917249296	-0.00351258126459112	-0.0035238439005584004	0.00014894342055872002	269.92834232097243
0.00014975954665968002	0.00014860086253864002	-0.0035485388492398403	-0.0035145090566999202	-0.0035258523208798404	0.00014898709057904	269.9376346815337
0.00014981544731968	0.00014863893413184	-0.0035507102735622405	-0.00351643858408896	-0.0035278624805800806	0.00014903110519448002	269.94692704209496
0.00014987122303152	0.00014867686642768002	-0.00355288363658912	-0.0035183696824120005	-0.0035298743338044005	0.0001490749852956	269.95621940265625
0.00014992712831272002	0.00014871496572176	-0.00355505898180344	-0.0035203026048622405	-0.00353188806384264	0.00014911901991872001	269.96551176321753
0.00014998286724456002	0.00014875364714696	-0.0035572363899032	-0.0035222368904888803	-0.0035339033902936803	0.00014916338717952	269.9748041237788
0.00015003877709360002	0.00014879177344016001	-0.00355941591199168	-0.00352417273269008	-0.0035359204591239204	0.00014920744132464	269.98409648434006
0.00015009447929040001	0.00014883051230752002	-0.00356159776294464	-0.0035261101442915204	-0.0035379393505092	0.00014925183463512	269.9933888449013
0.00015015085333192	0.0001488686349908	-0.00356378198579824	-0.0035280491049471206	-0.0035399600652308003	0.00014929604110448	270.0026812054626
0.00015020807533096	0.00014890696774144002	-0.0035659675934104802	-0.00352999003270088	-0.00354198255293744	0.00014934067027128	270.01197356602387
0.00015026407117984	0.0001489455139824	-0.0035681551625428003	-0.00353193261927472	-0.0035440068003640803	0.00014938503304824001	270.0212659265851
0.00015032080452968	0.00014898390080072	-0.0035703452366979203	-0.0035338771431241605	-0.0035460331743154398	0.00014942953537704	270.0305582871464
0.00015037766995664	0.00014902330894808	-0.0035725371559658403	-0.0035358231744132803	-0.00354806116826416	0.0001494747626176	270.0398506477076
0.00015043433029344002	0.00014906232494264	-0.0035747312785675204	-0.0035377702954196	-0.0035500906231356005	0.00014951966005960002	270.0491430082689
0.00015049151967088	0.00014910082123992003	-0.0035769274872145605	-0.0035397192253276803	-0.0035521219792900003	0.0001495643873836	270.0584353688302
0.00015054836052288002	0.00014913924278024	-0.0035791258627678405	-0.00354167038672136	-0.0035541555454035203	0.00014960894869448	270.06772772939144
0.00015060586570792	0.00014917833213504	-0.00358132638574064	-0.0035436234414376005	-0.0035561910895385604	0.00014965417665928002	270.0770200899527
0.00015066319965544	0.00014921759293024003	-0.0035835287506417604	-0.0035455779783489603	-0.00355822823577992	0.00014969946183864002	270.086312450514
0.00015072021030280002	0.0001492568336652	-0.0035857335872948003	-0.00354753404458256	-0.0035602672254866404	0.00014974462587776001	270.09560481107525
0.00015077802714784003	0.00014929571192208002	-0.0035879406537915205	-0.0035494919962286405	-0.0035623082154163203	0.00014978981699736	270.10489717163654
0.0001508357431156	0.00014933480264488002	-0.00359014944131216	-0.0035514521032856006	-0.0035643512159611204	0.00014983511613512	270.11418953219777
0.00015089275241896	0.00014937455190704	-0.00359236078007168	-0.0035534138357541604	-0.00356639615052664	0.00014988061874432002	270.12348189275906
0.00015095063973536002	0.00014941400018096	-0.0035945745850952	-0.00355537711697968	-0.00356844293968488	0.00014992621336576002	270.1327742533203
0.00015100822637176002	0.00014945348296616	-0.00359679055970416	-0.0035573422993654402	-0.00357049171947832	0.00014997173076808	270.1420666138816
0.00015106605338888	0.00014949304806744	-0.0035990092404996005	-0.0035593093067002404	-0.00357254261796664	0.00015001738317456002	270.15135897444287
0.00015112505967816	0.00014953253389080002	-0.0036012297427386406	-0.00356127824526848	-0.0035745954110918405	0.00015006337581992	270.1606513350041
0.00015118319637504	0.00014957228493296	-0.0036034519690872	-0.0035632490651584	-0.0035766500331346402	0.00015010925541368	270.1699436955654
0.00015124102935480001	0.00014961191747192	-0.0036056768929268	-0.0035652217436824003	-0.00357870679343056	0.00015015495476624003	270.1792360561266
0.00015129904799176	0.00014965156402344	-0.00360790458521432	-0.0035671965617780003	-0.00358076590292344	0.00015020072534624	270.1885284166879
0.00015135759867232002	0.000149691741596	-0.0036101345977965597	-0.00356917323257536	-0.0035828270209824	0.00015024702728808003	270.19782077724915
0.00015141561934712002	0.00014973169941512	-0.00361236742041048	-0.00357115162797696	-0.0035848902254548005	0.00015029300605912002	270.20711313781044
0.00015147537276744003	0.00014977145453296003	-0.00361460242659992	-0.0035731322610707203	-0.00358695564958048	0.00015033942727784002	270.2164054983717
0.00015153399415232	0.00014981176735064	-0.0036168393987613605	-0.00357511493294736	-0.0035890230882187203	0.0001503858429512	270.22569785893296
0.00015159301358384	0.00014985186025536	-0.00361907920706288	-0.0035770995197256803	-0.0035910927488380807	0.00015043224469816	270.23499021949425
0.00015165217217992	0.00014989207263272	-0.00362132141852552	-0.00357908626340904	-0.00359316464844784	0.00015047877248176001	270.2442825800555
0.00015171104963328003	0.00014993226055720003	-0.00362356654306808	-0.0035810752237354403	-0.00359523899684632	0.0001505251902492	270.2535749406168
0.00015177130210176	0.00014997277800352	-0.00362581379904728	-0.00358306630726192	-0.0035973154711904003	0.00015057228603624002	270.26286730117806
0.00015182980248392003	0.00015001305290776002	-0.0036280637104813603	-0.0035850596500296805	-0.00359939433684688	0.00015061863609984002	270.2721596617393
0.00015188971904424002	0.00015005377873480001	-0.00363031661340352	-0.0035870552520724797	-0.0036014757058495206	0.00015066575883792	270.2814520223006
0.00015194845741856	0.00015009419769344	-0.00363257236781072	-0.00358905313967808	-0.0036035595490556804	0.00015071228426848001	270.2907443828618
0.00015200810231832002	0.00015013478721584002	-0.00363483171494848	-0.0035910536096938404	-0.0036056463114453605	0.00015075922558328	270.3000367434231
0.00015206858968616003	0.00015017539903584002	-0.00363709355024648	-0.0035930566843564004	-0.0036077356396531203	0.00015080646258600002	270.3093291039844
0.00015212834239528	0.00015021608337952	-0.0036393582172014405	-0.0035950627099048805	-0.0036098278790037603	0.00015085350305144	270.31862146454563
0.00015218809753992	0.00015025767047768	-0.00364162667195712	-0.0035970712184698397	-0.00361192303629896	0.00015090114616512	270.3279138251069
0.00015224849522584	0.0001502982481904	-0.00364389875902192	-0.0035990828032525604	-0.00361402145517568	0.0001509483305356	270.3372061856681
0.00015230894803184	0.00015034002213960002	-0.0036461745186839203	-0.00360109775477784	-0.00361612334274656	0.00015099633077032002	270.34649854622944
0.0001523693921332	0.0001503809807304	-0.0036484546742947205	-0.0036031161754331202	-0.00361822900838696	0.00015104378453136003	270.3557909067908
0.0001524298275928	0.00015042159745688	-0.00365074036042448	-0.00360514010529008	-0.0036203401903348803	0.00015109100750224002	270.365083267352
0.00015249025439616	0.00015046296768112	-0.00365303540465336	-0.0036071728899309606	-0.0036224603948384	0.00015113872991952	270.37437562791325
0.000152560908374	0.00015051456480344002	-0.0036553398959796	-0.0036092136144672	-0.0036245890416380004	0.00015119667932696	270.3836679884745
0.00015264816471592001	0.00015058063961896	-0.00365764205932792	-0.00361125181105016	-0.00362671522714272	0.00015126981465128002	270.3929603490358
0.00015273554461024002	0.00015064750986760003	-0.00365993738393712	-0.0036132837167839205	-0.00362883493916832	0.00015134352144848	270.40225270959706
0.00015282309035912	0.00015071485404952002	-0.00366223080465888	-0.0036153133625799203	-0.0036309525099396003	0.00015141759948608002	270.4115450701583
0.00015290994215296001	0.00015078222790016003	-0.00366452424219968	-0.00361734183694728	-0.0036330693053647205	0.0001514914659844	270.4208374307196
0.000152998260464	0.00015084952358672	-0.0036668179568852006	-0.00361936966033904	-0.00363518575918776	0.00015156576921248002	270.4301297912808
0.00015308626519248	0.00015091558765640002	-0.00366911153670616	-0.00362139814178856	-0.00363730260676104	0.00015163914683504002	270.4394221518421
0.00015317359898472002	0.00015098264670728	-0.00367140631441408	-0.0036234278153236005	-0.00363942064835376	0.00015171296413312002	270.44871451240334
0.0001532617699352	0.00015105032439424	-0.0036737025338514397	-0.0036254578433284803	-0.00364153940683616	0.00015178747290784002	270.45800687296463
0.00015335046640688	0.00015111805418528001	-0.0036759994897720798	-0.0036274882754468805	-0.00364365868022192	0.00015186219159248	270.4672992335259
0.00015343878604088003	0.000151185698774	-0.0036782974474152	-0.0036295195086093602	-0.00364577882154464	0.00015193672786296	270.47659159408715
0.00015352694988536	0.0001512535676556	-0.0036805971306691204	-0.0036315516281714404	-0.0036479001290040006	0.00015201136173216003	270.48588395464844
0.00015361579972592	0.00015132125463312	-0.0036828983949335203	-0.00363358491816952	-0.00365002274375752	0.00015208610299744	270.4951763152097
