beta_para	beta_perp	delta_para	delta_perp	delta	beta	energy
0.0001460723543848	0.0001460723543848	-0.00338083204719776	-0.00338083204719776	-0.00338083204719776	0.0001460723543848	269.25
0.00014608209183752	0.00014608209183752	-0.00338279206274256	-0.00338279206274256	-0.00338279206274256	0.00014608209183752	269.2592923605613
0.00014611044736624002	0.00014611044736624002	-0.00338474157083856	-0.00338474157083856	-0.00338474157083856	0.00014611044736624002	269.26858472112247
0.00014613848731832	0.00014613848731832	-0.0033866802885708005	-0.0033866802885708005	-0.0033866802885708005	0.00014613848731832	269.2778770816838
0.00014616634094568	0.00014616634094568	-0.0033886153929532804	-0.0033886153929532804	-0.0033886153929532804	0.00014616634094568	269.28716944224504
0.00014619464317592	0.00014619464317592	-0.00339054865094168	-0.00339054865094168	-0.00339054865094168	0.00014619464317592	269.29646180280633
0.00014622300009456	0.00014622300009456	-0.003392480867338	-0.003392480867338	-0.003392480867338	0.00014622300009456	269.3057541633676
0.00014625139047296	0.00014625139047296	-0.00339441285619504	-0.00339441285619504	-0.00339441285619504	0.00014625139047296	269.31504652392886
0.00014627966535608002	0.00014627966535608002	-0.0033963454085608	-0.0033963454085608	-0.0033963454085608	0.00014627966535608002	269.32433888449015
0.00014630809690664002	0.00014630809690664002	-0.0033982793269232005	-0.0033982793269232005	-0.0033982793269232005	0.00014630809690664002	269.3336312450514
0.00014633636248583999	0.00014633636248583999	-0.00340021708473416	-0.00340021708473416	-0.00340021708473416	0.00014633636248583999	269.34292360561267
0.00014637205104768003	0.00014637205104768003	-0.00340215671863496	-0.00340215671863496	-0.00340215671863496	0.00014637205104768003	269.352215966174
0.0001464114025248	0.0001464114025248	-0.0034040934388676804	-0.0034040934388676804	-0.0034040934388676804	0.0001464114025248	269.3615083267352
0.00014645060176096	0.00014645060176096	-0.0034060279839192003	-0.0034060279839192003	-0.0034060279839192003	0.00014645060176096	269.3708006872965
0.00014649025058176	0.00014649025058176	-0.00340796178304976	-0.00340796178304976	-0.00340796178304976	0.00014649025058176	269.38009304785766
0.00014652996745744	0.00014652996745744	-0.00340989504964144	-0.00340989504964144	-0.00340989504964144	0.00014652996745744	269.389385408419
0.0001465695652828	0.0001465695652828	-0.00341182823289736	-0.00341182823289736	-0.00341182823289736	0.0001465695652828	269.39867776898024
0.00014660916855752	0.00014660916855752	-0.00341376166135704	-0.00341376166135704	-0.00341376166135704	0.00014660916855752	269.4079701295415
0.00014664887022448002	0.00014664887022448002	-0.0034156953964316	-0.0034156953964316	-0.0034156953964316	0.00014664887022448002	269.4172624901028
0.00014668836658200001	0.00014668836658200001	-0.0034176297059352804	-0.0034176297059352804	-0.0034176297059352804	0.00014668836658200001	269.42655485066405
0.00014672816190744	0.00014672816190744	-0.0034195647083963203	-0.0034195647083963203	-0.0034195647083963203	0.00014672816190744	269.43584721122534
0.00014676801516464	0.00014676801516464	-0.00342150031994776	-0.00342150031994776	-0.00342150031994776	0.00014676801516464	269.44513957178657
0.00014680797362832	0.00014680797362832	-0.00342343661100096	-0.00342343661100096	-0.00342343661100096	0.00014680797362832	269.45443193234786
0.00014684782330088002	0.00014684782330088002	-0.0034253737650664	-0.0034253737650664	-0.0034253737650664	0.00014684782330088002	269.46372429290915
0.00014688795024784	0.00014688795024784	-0.0034273118236255204	-0.0034273118236255204	-0.0034273118236255204	0.00014688795024784	269.4730166534704
0.00014692810015672	0.00014692810015672	-0.0034292507056080004	-0.0034292507056080004	-0.0034292507056080004	0.00014692810015672	269.48230901403167
0.000146968215586	0.000146968215586	-0.0034311906533364004	-0.0034311906533364004	-0.0034311906533364004	0.000146968215586	269.4916013745929
0.00014700873509792002	0.00014700873509792002	-0.0034331315654816	-0.0034331315654816	-0.0034331315654816	0.00014700873509792002	269.50089373515414
0.00014704922451744002	0.00014704922451744002	-0.00343507328615352	-0.00343507328615352	-0.00343507328615352	0.00014704922451744002	269.5101860957155
0.00014708948328768002	0.00014708948328768002	-0.0034370162183226406	-0.0034370162183226406	-0.0034370162183226406	0.00014708948328768002	269.5194784562767
0.00014713021177136	0.00014713021177136	-0.00343896033349856	-0.00343896033349856	-0.00343896033349856	0.00014713021177136	269.528770816838
0.00014717102774144	0.00014717102774144	-0.0034409053509628002	-0.0034409053509628002	-0.0034409053509628002	0.00014717102774144	269.53806317739924
0.00014721177348192002	0.00014721177348192002	-0.00344285139246448	-0.00344285139246448	-0.00344285139246448	0.00014721177348192002	269.54735553796047
0.00014725232009504003	0.00014725232009504003	-0.00344479880087248	-0.00344479880087248	-0.00344479880087248	0.00014725232009504003	269.5566478985218
0.00014729342722944003	0.00014729342722944003	-0.0034467473654502404	-0.0034467473654502404	-0.0034467473654502404	0.00014729342722944003	269.56594025908305
0.00014733416729304	0.00014733416729304	-0.0034486970701996	-0.0034486970701996	-0.0034486970701996	0.00014733416729304	269.57523261964434
0.00014737519400704	0.00014737519400704	-0.00345064818888864	-0.00345064818888864	-0.00345064818888864	0.00014737519400704	269.5845249802056
0.00014741650632208	0.00014741650632208	-0.00345260033007328	-0.00345260033007328	-0.00345260033007328	0.00014741650632208	269.59381734076686
0.00014745739686608002	0.00014745739686608002	-0.0034545537396372798	-0.0034545537396372798	-0.0034545537396372798	0.00014745739686608002	269.6031097013281
0.00014749858540920001	0.00014749858540920001	-0.00345650860633568	-0.00345650860633568	-0.00345650860633568	0.00014749858540920001	269.6124020618894
0.00014753980007056	0.00014753980007056	-0.00345846472690216	-0.00345846472690216	-0.00345846472690216	0.00014753980007056	269.6216944224507
0.00014758093045088	0.00014758093045088	-0.0034604223722267203	-0.0034604223722267203	-0.0034604223722267203	0.00014758093045088	269.6309867830119
0.00014762262587592002	0.00014762262587592002	-0.0034623813870484003	-0.0034623813870484003	-0.0034623813870484003	0.00014762262587592002	269.6402791435732
0.00014766449017832	0.00014766449017832	-0.0034643412156594405	-0.0034643412156594405	-0.0034643412156594405	0.00014766449017832	269.6495715041344
0.0001477051955876	0.0001477051955876	-0.00346630290371288	-0.00346630290371288	-0.00346630290371288	0.0001477051955876	269.65886386469566
0.00014774764839072001	0.00014774764839072001	-0.00346826606795528	-0.00346826606795528	-0.00346826606795528	0.00014774764839072001	269.668156225257
0.00014778931836200002	0.00014778931836200002	-0.00347022989337184	-0.00347022989337184	-0.00347022989337184	0.00014778931836200002	269.67744858581824
0.00014783033020624	0.00014783033020624	-0.0034721957647475205	-0.0034721957647475205	-0.0034721957647475205	0.00014783033020624	269.6867409463796
0.00014787244418824002	0.00014787244418824002	-0.0034741633822116	-0.0034741633822116	-0.0034741633822116	0.00014787244418824002	269.6960333069408
0.00014791465135896	0.00014791465135896	-0.0034761319781541605	-0.0034761319781541605	-0.0034761319781541605	0.00014791465135896	269.70532566750205
0.00014795660454208	0.00014795660454208	-0.0034781018708908797	-0.0034781018708908797	-0.0034781018708908797	0.00014795660454208	269.71461802806334
0.00014799831097592002	0.00014799831097592002	-0.0034800735229624	-0.0034800735229624	-0.0034800735229624	0.00014799831097592002	269.7239103886246
0.00014804055633448	0.00014804055633448	-0.0034820467693859204	-0.0034820467693859204	-0.0034820467693859204	0.00014804055633448	269.73320274918586
0.0001480826816968	0.0001480826816968	-0.0034840214868532	-0.0034840214868532	-0.0034840214868532	0.0001480826816968	269.7424951097471
0.00014812522661792	0.00014812522661792	-0.0034859976837256002	-0.0034859976837256002	-0.0034859976837256002	0.00014812522661792	269.7517874703084
0.00014816773828728	0.00014816773828728	-0.0034879751659972003	-0.0034879751659972003	-0.0034879751659972003	0.00014816773828728	269.7610798308697
0.00014821007089168	0.00014821007089168	-0.0034899542204008	-0.0034899542204008	-0.0034899542204008	0.00014821007089168	269.77037219143085
0.00014825255694072	0.00014825255694072	-0.0034919349588680803	-0.0034919349588680803	-0.0034919349588680803	0.00014825255694072	269.77966455199214
0.00014829529315656	0.00014829529315656	-0.00349391714193952	-0.00349391714193952	-0.00349391714193952	0.00014829529315656	269.78895691255343
0.00014833781877720002	0.00014833781877720002	-0.00349590087061152	-0.00349590087061152	-0.00349590087061152	0.00014833781877720002	269.7982492731147
0.00014838051837264	0.00014838051837264	-0.00349788633379936	-0.00349788633379936	-0.00349788633379936	0.00014838051837264	269.807541633676
0.00014842354447056	0.00014842354447056	-0.0034998732135088	-0.0034998732135088	-0.0034998732135088	0.00014842354447056	269.81683399423724
0.00014846625114344	0.00014846625114344	-0.00350186158710328	-0.00350186158710328	-0.00350186158710328	0.00014846625114344	269.82612635479853
0.00014850890803448	0.00014850890803448	-0.0035038518742564802	-0.0035038518742564802	-0.0035038518742564802	0.00014850890803448	269.83541871535976
0.00014855204472424	0.00014855204472424	-0.00350584385447024	-0.00350584385447024	-0.00350584385447024	0.00014855204472424	269.84471107592105
0.00014859514556864	0.00014859514556864	-0.0035078374881148	-0.0035078374881148	-0.0035078374881148	0.00014859514556864	269.85400343648234
0.00014863894476792002	0.00014863894476792002	-0.0035098324655083203	-0.0035098324655083203	-0.0035098324655083203	0.00014863894476792002	269.8632957970436
0.00014868214410544	0.00014868214410544	-0.0035118287555985605	-0.0035118287555985605	-0.0035118287555985605	0.00014868214410544	269.87258815760487
0.00014872516341336002	0.00014872516341336002	-0.00351382703881168	-0.00351382703881168	-0.00351382703881168	0.00014872516341336002	269.8818805181661
0.00014876855598992	0.00014876855598992	-0.00351582718730512	-0.00351582718730512	-0.00351582718730512	0.00014876855598992	269.89117287872733
0.00014881211737456	0.00014881211737456	-0.00351782897900352	-0.00351782897900352	-0.00351782897900352	0.00014881211737456	269.9004652392887
0.00014885591189424	0.00014885591189424	-0.0035198323228907203	-0.0035198323228907203	-0.0035198323228907203	0.00014885591189424	269.9097575998499
0.0001488996061732	0.0001488996061732	-0.0035218372734624	-0.0035218372734624	-0.0035218372734624	0.0001488996061732	269.9190499604112
0.00014894342055872002	0.00014894342055872002	-0.0035238439005584004	-0.0035238439005584004	-0.0035238439005584004	0.00014894342055872002	269.92834232097243
0.00014898709057904	0.00014898709057904	-0.0035258523208798404	-0.0035258523208798404	-0.0035258523208798404	0.00014898709057904	269.93763468153367
0.00014903110519448002	0.00014903110519448002	-0.0035278624805800806	-0.0035278624805800806	-0.0035278624805800806	0.00014903110519448002	269.9469270420949
0.0001490749852956	0.0001490749852956	-0.0035298743338044005	-0.0035298743338044005	-0.0035298743338044005	0.0001490749852956	269.95621940265625
0.00014911901991872001	0.00014911901991872001	-0.00353188806384264	-0.00353188806384264	-0.00353188806384264	0.00014911901991872001	269.96551176321753
0.00014916338717952	0.00014916338717952	-0.0035339033902936803	-0.0035339033902936803	-0.0035339033902936803	0.00014916338717952	269.9748041237788
0.00014920744132464	0.00014920744132464	-0.0035359204591239204	-0.0035359204591239204	-0.0035359204591239204	0.00014920744132464	269.98409648434006
0.00014925183463512	0.00014925183463512	-0.0035379393505092	-0.0035379393505092	-0.0035379393505092	0.00014925183463512	269.9933888449013
0.00014929604110448	0.00014929604110448	-0.0035399600652308003	-0.0035399600652308003	-0.0035399600652308003	0.00014929604110448	270.0026812054626
0.00014934067027128	0.00014934067027128	-0.00354198255293744	-0.00354198255293744	-0.00354198255293744	0.00014934067027128	270.0119735660238
0.00014938503304824001	0.00014938503304824001	-0.0035440068003640803	-0.0035440068003640803	-0.0035440068003640803	0.00014938503304824001	270.0212659265851
0.00014942953537704	0.00014942953537704	-0.0035460331743154398	-0.0035460331743154398	-0.0035460331743154398	0.00014942953537704	270.0305582871464
0.0001494747626176	0.0001494747626176	-0.00354806116826416	-0.00354806116826416	-0.00354806116826416	0.0001494747626176	270.0398506477076
0.00014951966005960002	0.00014951966005960002	-0.0035500906231356005	-0.0035500906231356005	-0.0035500906231356005	0.00014951966005960002	270.04914300826886
0.0001495643873836	0.0001495643873836	-0.0035521219792900003	-0.0035521219792900003	-0.0035521219792900003	0.0001495643873836	270.0584353688302
0.00014960894869448	0.00014960894869448	-0.0035541555454035203	-0.0035541555454035203	-0.0035541555454035203	0.00014960894869448	270.06772772939144
0.00014965417665928002	0.00014965417665928002	-0.0035561910895385604	-0.0035561910895385604	-0.0035561910895385604	0.00014965417665928002	270.0770200899527
0.00014969946183864002	0.00014969946183864002	-0.00355822823577992	-0.00355822823577992	-0.00355822823577992	0.00014969946183864002	270.086312450514
0.00014974462587776001	0.00014974462587776001	-0.0035602672254866404	-0.0035602672254866404	-0.0035602672254866404	0.00014974462587776001	270.09560481107525
0.00014978981699736	0.00014978981699736	-0.0035623082154163203	-0.0035623082154163203	-0.0035623082154163203	0.00014978981699736	270.10489717163654
0.00014983511613512	0.00014983511613512	-0.0035643512159611204	-0.0035643512159611204	-0.0035643512159611204	0.00014983511613512	270.11418953219777
0.00014988061874432002	0.00014988061874432002	-0.00356639615052664	-0.00356639615052664	-0.00356639615052664	0.00014988061874432002	270.12348189275906
0.00014992621336576002	0.00014992621336576002	-0.00356844293968488	-0.00356844293968488	-0.00356844293968488	0.00014992621336576002	270.1327742533203
0.00014997173076808	0.00014997173076808	-0.00357049171947832	-0.00357049171947832	-0.00357049171947832	0.00014997173076808	270.1420666138816
0.00015001738317456002	0.00015001738317456002	-0.00357254261796664	-0.00357254261796664	-0.00357254261796664	0.00015001738317456002	270.15135897444287
0.00015006337581992	0.00015006337581992	-0.0035745954110918405	-0.0035745954110918405	-0.0035745954110918405	0.00015006337581992	270.1606513350041
0.00015010925541368	0.00015010925541368	-0.0035766500331346402	-0.0035766500331346402	-0.0035766500331346402	0.00015010925541368	270.16994369556534
0.00015015495476624003	0.00015015495476624003	-0.00357870679343056	-0.00357870679343056	-0.00357870679343056	0.00015015495476624003	270.1792360561266
0.00015020072534624	0.00015020072534624	-0.00358076590292344	-0.00358076590292344	-0.00358076590292344	0.00015020072534624	270.1885284166879
0.00015024702728808003	0.00015024702728808003	-0.0035828270209824	-0.0035828270209824	-0.0035828270209824	0.00015024702728808003	270.19782077724915
0.00015029300605912002	0.00015029300605912002	-0.0035848902254548005	-0.0035848902254548005	-0.0035848902254548005	0.00015029300605912002	270.20711313781044
0.00015033942727784002	0.00015033942727784002	-0.00358695564958048	-0.00358695564958048	-0.00358695564958048	0.00015033942727784002	270.21640549837167
0.0001503858429512	0.0001503858429512	-0.0035890230882187203	-0.0035890230882187203	-0.0035890230882187203	0.0001503858429512	270.22569785893296
0.00015043224469816	0.00015043224469816	-0.0035910927488380807	-0.0035910927488380807	-0.0035910927488380807	0.00015043224469816	270.23499021949425
0.00015047877248176001	0.00015047877248176001	-0.00359316464844784	-0.00359316464844784	-0.00359316464844784	0.00015047877248176001	270.2442825800555
0.0001505251902492	0.0001505251902492	-0.00359523899684632	-0.00359523899684632	-0.00359523899684632	0.0001505251902492	270.2535749406168
0.00015057228603624002	0.00015057228603624002	-0.0035973154711904003	-0.0035973154711904003	-0.0035973154711904003	0.00015057228603624002	270.26286730117806
0.00015061863609984002	0.00015061863609984002	-0.00359939433684688	-0.00359939433684688	-0.00359939433684688	0.00015061863609984002	270.2721596617393
0.00015066575883792	0.00015066575883792	-0.0036014757058495206	-0.0036014757058495206	-0.0036014757058495206	0.00015066575883792	270.2814520223006
0.00015071228426848001	0.00015071228426848001	-0.0036035595490556804	-0.0036035595490556804	-0.0036035595490556804	0.00015071228426848001	270.2907443828618
0.00015075922558328	0.00015075922558328	-0.0036056463114453605	-0.0036056463114453605	-0.0036056463114453605	0.00015075922558328	270.3000367434231
0.00015080646258600002	0.00015080646258600002	-0.0036077356396531203	-0.0036077356396531203	-0.0036077356396531203	0.00015080646258600002	270.3093291039844
0.00015085350305144	0.00015085350305144	-0.0036098278790037603	-0.0036098278790037603	-0.0036098278790037603	0.00015085350305144	270.3186214645456
0.00015090114616512	0.00015090114616512	-0.00361192303629896	-0.00361192303629896	-0.00361192303629896	0.00015090114616512	270.32791382510686
0.0001509483305356	0.0001509483305356	-0.00361402145517568	-0.00361402145517568	-0.00361402145517568	0.0001509483305356	270.3372061856681
0.00015099633077032002	0.00015099633077032002	-0.00361612334274656	-0.00361612334274656	-0.00361612334274656	0.00015099633077032002	270.34649854622944
0.00015104378453136003	0.00015104378453136003	-0.00361822900838696	-0.00361822900838696	-0.00361822900838696	0.00015104378453136003	270.3557909067908
0.00015109100750224002	0.00015109100750224002	-0.0036203401903348803	-0.0036203401903348803	-0.0036203401903348803	0.00015109100750224002	270.365083267352
0.00015113872991952	0.00015113872991952	-0.0036224603948384	-0.0036224603948384	-0.0036224603948384	0.00015113872991952	270.37437562791325
0.00015119667932696	0.00015119667932696	-0.0036245890416380004	-0.0036245890416380004	-0.0036245890416380004	0.00015119667932696	270.3836679884745
0.00015126981465128002	0.00015126981465128002	-0.00362671522714272	-0.00362671522714272	-0.00362671522714272	0.00015126981465128002	270.3929603490358
0.00015134352144848	0.00015134352144848	-0.00362883493916832	-0.00362883493916832	-0.00362883493916832	0.00015134352144848	270.40225270959706
0.00015141759948608002	0.00015141759948608002	-0.0036309525099396003	-0.0036309525099396003	-0.0036309525099396003	0.00015141759948608002	270.4115450701583
0.0001514914659844	0.0001514914659844	-0.0036330693053647205	-0.0036330693053647205	-0.0036330693053647205	0.0001514914659844	270.4208374307196
0.00015156576921248002	0.00015156576921248002	-0.00363518575918776	-0.00363518575918776	-0.00363518575918776	0.00015156576921248002	270.4301297912808
0.00015163914683504002	0.00015163914683504002	-0.00363730260676104	-0.00363730260676104	-0.00363730260676104	0.00015163914683504002	270.43942215184205
0.00015171296413312002	0.00015171296413312002	-0.00363942064835376	-0.00363942064835376	-0.00363942064835376	0.00015171296413312002	270.44871451240334
0.00015178747290784002	0.00015178747290784002	-0.00364153940683616	-0.00364153940683616	-0.00364153940683616	0.00015178747290784002	270.45800687296463
0.00015186219159248	0.00015186219159248	-0.00364365868022192	-0.00364365868022192	-0.00364365868022192	0.00015186219159248	270.4672992335259
0.00015193672786296	0.00015193672786296	-0.00364577882154464	-0.00364577882154464	-0.00364577882154464	0.00015193672786296	270.47659159408715
0.00015201136173216003	0.00015201136173216003	-0.0036479001290040006	-0.0036479001290040006	-0.0036479001290040006	0.00015201136173216003	270.48588395464844
0.00015208610299744	0.00015208610299744	-0.00365002274375752	-0.00365002274375752	-0.00365002274375752	0.00015208610299744	270.4951763152097
