beta_para	beta_perp	delta_para	delta_perp	delta	beta	energy
7.531017642025608e-05	7.531017642025608e-05	0.00037335414093704004	0.0003655763244696	0.00036816892995872	7.53101764202561e-05	661.0
7.53076964508145e-05	7.530779123340673e-05	0.0003733319237144	0.00036555163402152	0.00036814506391912006	7.530775963920933e-05	661.0111123458162
7.530526868871823e-05	7.530543582733615e-05	0.00037331061135464005	0.00036552788314624	0.0003681221258824	7.530538011446352e-05	661.0222246916325
7.530278897749349e-05	7.530305087182325e-05	0.00037328963908544	0.00036550449247536003	0.00036809954134544003	7.530296357371334e-05	661.0333370374486
7.530036144691961e-05	7.530066604731448e-05	0.00037326888732968	0.00036548131202528004	0.00036807717046008	7.530056451384953e-05	661.0444493832648
7.52978819937835e-05	7.529831096457886e-05	0.00037324829941608005	0.00036545831685256	0.00036805497770704004	7.529816797431372e-05	661.055561729081
7.529545469474783e-05	7.529589745269898e-05	0.00037322784200688003	0.00036543545173104005	0.00036803291515632	7.529574986671527e-05	661.0666740748973
7.529297549980644e-05	7.529351299140444e-05	0.00037320749316520005	0.00036541266650336	0.00036801094205728005	7.529333382753843e-05	661.0777864207134
7.529054843223117e-05	7.529115826531937e-05	0.0003731872373972	0.00036538999327032003	0.00036798907464592	7.52909549876233e-05	661.0888987665296
7.528806949540317e-05	7.528877401549863e-05	0.00037316706340952	0.00036536741424048004	0.00036796729729680005	7.528853917546682e-05	661.1000111123458
7.528564265925721e-05	7.528638988343622e-05	0.00037314696329984005	0.00036534489725656004	0.00036794558593768005	7.528614080870989e-05	661.1111234581621
7.528316391683859e-05	7.528400590538609e-05	0.00037312693982336	0.00036532243444352	0.00036792393623680004	7.528372524253693e-05	661.1222358039782
7.528068536799143e-05	7.528165163214016e-05	0.00037310693979288	0.00036530004101528003	0.00036790234060784003	7.528132954409058e-05	661.1333481497944
7.527825887980656e-05	7.527926789516534e-05	0.00037308700555560006	0.00036527770644552004	0.00036788080614888	7.527893155671243e-05	661.1444604956106
7.527578058889285e-05	7.527691380268787e-05	0.00037306712287976	0.00036525543235424	0.00036785932919608	7.52765360647562e-05	661.1555728414269
7.527335433210669e-05	7.527450138620919e-05	0.00037304728698464004	0.0003652331997744	0.0003678378955112	7.52741190348417e-05	661.166685187243
7.527087629923251e-05	7.527211801223159e-05	0.00037302749437688004	0.0003652109787068	0.00036781648393016	7.527170410789856e-05	661.1777975330592
7.526845027376711e-05	7.526976430511605e-05	0.00037300774214656	0.000365188814554	0.00036779512375152	7.52693262946664e-05	661.1889098788754
7.526597249885112e-05	7.526738111281994e-05	0.00037298802781536003	0.00036516669859576	0.00036777380833568	7.526691157483034e-05	661.2000222246917
7.526354670467552e-05	7.526499810082167e-05	0.00037296834918864	0.00036514460043344003	0.00036775251668512003	7.526451430210629e-05	661.2111345705079
7.526106918768334e-05	7.526264473289417e-05	0.00037294870434416	0.00036512254517704	0.00036773126489936004	7.526211955115726e-05	661.222246916324
7.525864362476656e-05	7.526026189264191e-05	0.00037292909154176	0.00036510053086056003	0.00036771005108768	7.52597224700168e-05	661.2333592621402
7.525616636566349e-05	7.525787924255042e-05	0.00037290950924144	0.00036507852852056	0.00036768885542752	7.525730828358813e-05	661.2444716079565
7.525374103392791e-05	7.525552621361161e-05	0.00037288995603264	0.00036505656411504	0.00036766769475424	7.525493115371705e-05	661.2555839537727
7.525126403263319e-05	7.525314372533291e-05	0.00037287043066776005	0.000365034636426	0.00036764656783992	7.525251716109967e-05	661.2666962995888
7.524883893218794e-05	7.525076143705028e-05	0.00037285093200544004	0.00036501271758448	0.0003676254557248	7.525012060209617e-05	661.277808645405
7.524636218871366e-05	7.524840866381162e-05	0.00037283145906560005	0.00036499083932328	0.00036760437923736	7.524772650544564e-05	661.2889209912213
7.524393731943435e-05	7.524599779547933e-05	0.00037281201101384	0.00036496897433968003	0.00036758331989768006	7.5245310970131e-05	661.3000333370375
7.524146083374617e-05	7.524364533238835e-05	0.00037279258733704	0.00036494712166968	0.00036756227689216	7.524291716617429e-05	661.3111456828536
7.523903619560176e-05	7.524126343121581e-05	0.00037277318837400006	0.00036492530641552	0.00036754126706832	7.524052101934447e-05	661.3222580286698
7.523655979414459e-05	7.523888174647068e-05	0.00037275382320584006	0.00036490349463232005	0.00036752027082352	7.5238107762362e-05	661.3333703744861
7.523408369594516e-05	7.523652962231899e-05	0.00037273444405600003	0.00036488171153504004	0.00036749928904208006	7.523571431352771e-05	661.3444827203023
7.52316594052731e-05	7.523414817818674e-05	0.0003727150973556	0.000364859950544	0.00036747833281456006	7.523331858721553e-05	661.3555950661184
7.522918356472713e-05	7.523179627965248e-05	0.00037269577241456003	0.00036483821081176	0.00036745739801272	7.523092537467737e-05	661.3667074119346
7.52267595052059e-05	7.522941496441998e-05	0.00037267646741112	0.00036481649699816003	0.00036743648713576	7.522852981134861e-05	661.3778197577509
7.522428392232548e-05	7.522703388201405e-05	0.00037265718136624004	0.00036479478161544	0.0003674155815324	7.522611722878453e-05	661.3889321035671
7.522186009383082e-05	7.52246823223069e-05	0.00037263791352736003	0.00036477309089544003	0.00036739469843944	7.522374157948155e-05	661.4000444493832
7.521938476858158e-05	7.522230148059219e-05	0.00037261866328272005	0.00036475141866168	0.00036737383353536003	7.522132924325533e-05	661.4111567951994
7.521696117108252e-05	7.521995014640028e-05	0.00037259943006312003	0.00036472976393424003	0.00036735298597720005	7.521895382129438e-05	661.4222691410157
7.521448610343005e-05	7.521756954534483e-05	0.00037258021337112	0.00036470812653144005	0.000367332155478	7.521654173137321e-05	661.4333814868319
7.52120627368955e-05	7.521521843663762e-05	0.00037256101271952003	0.00036468650746240003	0.00036731134254808	7.521416653672358e-05	661.444493832648
7.520958792671194e-05	7.521283780944714e-05	0.00037254182767496003	0.00036466491793	0.00036729055451168	7.521175451520209e-05	661.4556061784642
7.520716479115815e-05	7.521042881156244e-05	0.00037252265780288	0.00036464331017528	0.00036726975938448003	7.5209340804761e-05	661.4667185242805
7.520469023854924e-05	7.520807804252263e-05	0.00037250350271464004	0.00036462171066752003	0.0003672489746832	7.52069487745315e-05	661.4778308700967
7.520226733389835e-05	7.520569804441721e-05	0.00037248436201376	0.00036460013387792	0.0003672282099232	7.520455447424426e-05	661.4889432159129
7.519979303878305e-05	7.52033475007876e-05	0.00037246523534368003	0.00036457857254704	0.00036720746014592005	7.520216268011943e-05	661.500055561729
7.519737036500407e-05	7.520096774322948e-05	0.00037244612233408	0.0003645570252596	0.0003671867242844	7.519976861715433e-05	661.5111679075453
7.519489632734806e-05	7.519861742498013e-05	0.00037242702264704005	0.00036453549133264	0.0003671660017708	7.519737705910278e-05	661.5222802533615
7.51924738844101e-05	7.519623790793741e-05	0.00037240793592112006	0.00036451397045752	0.00036714529227872003	7.519498323342832e-05	661.5333925991777
7.519000010417848e-05	7.519388781503766e-05	0.00037238886181160003	0.00036449246289048	0.00036712459586416	7.519259191141792e-05	661.5445049449938
7.518757789200436e-05	7.519150837374884e-05	0.00037236979991984	0.00036447097380504006	0.00036710391584328004	7.519019821316737e-05	661.5556172908101
7.518510436911699e-05	7.518912921789027e-05	0.00037235074979744004	0.00036444947621496	0.00036708323407576	7.518778760163248e-05	661.5667296366263
7.518268238781521e-05	7.518677946348468e-05	0.00037233171075896	0.00036442799655936006	0.00036706256795920005	7.518541377159486e-05	661.5778419824425
7.518020912228402e-05	7.51844005480616e-05	0.00037231268132264004	0.0003644065288468	0.00036704191300536003	7.518300340613575e-05	661.5889543282588
7.517778768378798e-05	7.518205101893143e-05	0.00037229365151688005	0.00036438507211656	0.00036702126525000006	7.518062990721693e-05	661.6000666740749
7.517536604772372e-05	7.517967234391204e-05	0.00037227466783888003	0.00036436362588088004	0.00036700063986688005	7.517823691184926e-05	661.6111790198911
7.517289316728902e-05	7.517732304002727e-05	0.00037225568311576	0.00036434218977368	0.00036698002088768	7.51758464157812e-05	661.6222913657073
7.517047176192685e-05	7.51749446053796e-05	0.00037223670712416	0.00036432076350280005	0.00036695941137656	7.517345365756203e-05	661.6334037115236
7.5167999138762e-05	7.517259552670951e-05	0.00037221774084776003	0.00036429934679392	0.00036693881147856	7.517106339739369e-05	661.6445160573397
7.516557796402485e-05	7.517021733224396e-05	0.00037219878447192	0.00036427793940752	0.00036691822109568005	7.516867087617092e-05	661.6556284031559
7.516310559804989e-05	7.516786847878694e-05	0.00037217983799416	0.0003642565411048	0.00036689764006792003	7.51662808518746e-05	661.6667407489721
7.516068465404612e-05	7.516549052476043e-05	0.00037216090130712	0.00036423515167256	0.00036687706821744	7.516388856785567e-05	661.6778530947884
7.515821254527293e-05	7.516314189645907e-05	0.00037214197429208005	0.00036421377089224	0.00036685650535888	7.516149877939704e-05	661.6889654406045
7.515579183187864e-05	7.516076418270861e-05	0.0003721230567868	0.0003641923985668	0.0003668359513068	7.515910673243194e-05	661.7000777864207
7.515331998027293e-05	7.515841577953302e-05	0.00037210414864360003	0.0003641710344912	0.00036681540587536	7.515671717977967e-05	661.7111901322369
7.515089949745721e-05	7.515603830602672e-05	0.00037208524968192	0.00036414967847896005	0.00036679486887992	7.515432536983689e-05	661.7223024780532
7.514842790298467e-05	7.515369012794695e-05	0.00037206635973760006	0.00036412833033232	0.00036677434013408	7.515193605295952e-05	661.7334148238693
7.514600765071638e-05	7.515131289465177e-05	0.00037204747861008003	0.00036410698986888	0.00036675381944928	7.514954448000664e-05	661.7445271696855
7.514353631324945e-05	7.514896494150724e-05	0.00037202860610352	0.00036408565688944	0.00036673330662744	7.514715539875465e-05	661.7556395155017
7.514111629154519e-05	7.514658794836702e-05	0.0003720097419584	0.00036406433120104	0.00036671280145352	7.514476406275971e-05	661.766751861318
7.513864521118922e-05	7.514424022041585e-05	0.00037199088585544	0.0003640430125776	0.00036669230367024006	7.514237521734032e-05	661.7778642071341
7.513622541997105e-05	7.514186346742422e-05	0.00037197203722864	0.00036402170076080004	0.0003666718129168	7.513998411827317e-05	661.7889765529503
7.513375459664533e-05	7.513951596447918e-05	0.00037195319469064003	0.00036400039535376005	0.000366651328466	7.513759550853457e-05	661.8000888987665
7.513133545747377e-05	7.513713945160423e-05	0.00037193434850128	0.00036397909549232	0.00036663084649528	7.513520478689409e-05	661.8112012445828
7.512891601105427e-05	7.513479241702864e-05	0.00037191554502456	0.00036395779556016005	0.00036661037871496	7.513283361503719e-05	661.822313590399
7.512644557233707e-05	7.513244525103979e-05	0.00037189673732520006	0.00036393652188288004	0.00036658992703032003	7.513044535813887e-05	661.8334259362151
7.51240263563262e-05	7.513006909778193e-05	0.00037187793523192	0.00036391524765928005	0.00036656947685016	7.512805485063e-05	661.8445382820313
7.512155617446042e-05	7.512772215659398e-05	0.00037185913979016	0.00036389397840736	0.0003665490322016	7.512566682921614e-05	661.8556506278476
7.511913718887495e-05	7.512534624334794e-05	0.0003718403512324	0.00036387271463584	0.00036652859350136	7.512327655852362e-05	661.8667629736638
7.511666726396593e-05	7.512299952721877e-05	0.00037182156957808006	0.00036385145637352	0.00036650816077504	7.512088877280115e-05	661.8778753194799
7.511424850872788e-05	7.512062385397802e-05	0.00037180279469712003	0.00036383020348864005	0.00036648773389152	7.511849873889463e-05	661.8889876652961
7.511177884069489e-05	7.511827736272051e-05	0.00037178402635856003	0.00036380895565624004	0.00036646731255704	7.511611118871196e-05	661.9001000111124
7.510936031577341e-05	7.511590192945322e-05	0.00037176526406096003	0.00036378771204872	0.00036644689605280003	7.511372139155994e-05	661.9112123569286
7.510689090458224e-05	7.511355593594943e-05	0.00037174650645760003	0.00036376646709984005	0.00036642648021912005	7.511133425882703e-05	661.9223247027447
7.51044730948959e-05	7.511120978144676e-05	0.00037172774392224	0.0003637452470588	0.00036640607934656003	7.510896421926314e-05	661.9334370485609
7.510205491451891e-05	7.510883470758174e-05	0.00037170902271776	0.00036372402509656003	0.00036638569097032	7.51065747765608e-05	661.9445493943772
7.50995858875611e-05	7.510648877774584e-05	0.00037169029601856	0.00036370280652728	0.0003663653030244	7.510418781435092e-05	661.9556617401934
7.5097167937471e-05	7.510411394374964e-05	0.00037167157364928005	0.00036368159117328006	0.00036634491866528	7.510179860832343e-05	661.9667740860095
7.509469916731573e-05	7.510176852812951e-05	0.00037165285664744003	0.00036366037370776	0.00036632453468768005	7.50994120745249e-05	661.9778864318257
7.509228144743447e-05	7.509942293509354e-05	0.00037163414520672	0.00036363918044624	0.00036630416869976	7.50970424392072e-05	661.988998777642
7.50898129340012e-05	7.509704846038202e-05	0.00037161543923896004	0.00036361798463712	0.00036628380283776005	7.509463661825507e-05	662.0001111234582
7.508739544429799e-05	7.50947030920686e-05	0.00037159673831808004	0.00036359679162256003	0.00036626344052112004	7.509226720947839e-05	662.0112234692743
7.508492718755254e-05	7.509232885717152e-05	0.00037157804113336	0.00036357560124128	0.00036624308120528	7.508986163396518e-05	662.0223358150905
7.508251046474088e-05	7.508998401924316e-05	0.00037155933814368	0.00036355440819480005	0.00036622271817776	7.508749283440906e-05	662.0334481609068
7.508009331937479e-05	7.508763898745966e-05	0.00037154067551160006	0.00036353323876552003	0.0003662023843476	7.508512376476472e-05	662.044560506723
7.507762544663212e-05	7.508526511157114e-05	0.000371522006472	0.00036351206621552	0.00036618204630104004	7.508271855659146e-05	662.0556728525391
7.507520853141445e-05	7.508292030446363e-05	0.00037150334079400003	0.00036349089586024005	0.00036616171083816003	7.508034971344721e-05	662.0667851983553
7.507274091532027e-05	7.508054666844045e-05	0.00037148467940128	0.00036346972748840003	0.000366141378126	7.507794475073374e-05	662.0778975441716
7.507032423017297e-05	7.507820240801219e-05	0.000371466022186	0.00036344855572464	0.00036612104454512005	7.507557634873243e-05	662.0890098899878
7.506785687064692e-05	7.507585793732429e-05	0.00037144736797056	0.00036342740659784	0.00036610072705544	7.507319091509849e-05	662.100122235804
7.506544099253656e-05	7.507348466034771e-05	0.00037142870733472	0.00036340625269168	0.00036608040423936005	7.507080343774399e-05	662.1112345816201
7.506302465156572e-05	7.50711407461289e-05	0.00037141008640288005	0.00036338509405424	0.00036606009150376	7.506843538127451e-05	662.1223469274364
7.50605576759562e-05	7.506879661179365e-05	0.00037139145849616003	0.00036336395717384	0.00036603979094792003	7.506605029984783e-05	662.1334592732526
7.505814156497843e-05	7.50664236937905e-05	0.00037137283339704	0.00036334281460120003	0.0003660194875332	7.506366298418647e-05	662.1445716190688
7.505567484575861e-05	7.506408011702345e-05	0.00037135421204544	0.00036332166581432	0.00036599918122472	7.506127835993516e-05	662.155683964885
7.505325896479088e-05	7.506173593422471e-05	0.00037133559434680006	0.00036330053105864	0.000365978885488	7.505891027774677e-05	662.1667963107012
7.505079250206573e-05	7.505939259623178e-05	0.00037131697912752	0.00036327940479336006	0.00036595859623808	7.505652589817641e-05	662.1779086565174
7.504837746826142e-05	7.505704902172548e-05	0.00037129835702328	0.00036325829270288004	0.00036593831414304004	7.50541585039041e-05	662.1890210023336
7.504596193130906e-05	7.505467670119422e-05	0.00037127977408008	0.00036323717362472005	0.0003659180404432	7.505177177789915e-05	662.2001333481498
7.504349585232134e-05	7.50523337092271e-05	0.00037126118367896	0.00036321604857472	0.00036589776027616	7.50493877569252e-05	662.211245693966
7.504108054525512e-05	7.504999047089507e-05	0.00037124259559408006	0.00036319494442528	0.00036587749481488	7.504702049568177e-05	662.2223580397822
7.503861472263043e-05	7.504761850914891e-05	0.00037122401076176005	0.00036317383415704	0.00036585722635856	7.504461724697609e-05	662.2334703855984
7.503619964541885e-05	7.504527586313677e-05	0.00037120542907840003	0.0003631527180304	0.00036583695504640006	7.50422504572308e-05	662.2445827314147
7.503373407903021e-05	7.504293296078246e-05	0.00037118684934616	0.00036313162256672	0.00036581669815984	7.503986666686503e-05	662.2556950772308
7.50313198891369e-05	7.504056135772346e-05	0.00037116826221400003	0.00036311052044016003	0.00036579643436472	7.50374808681946e-05	662.266807423047
7.50289051558271e-05	7.503821905760141e-05	0.00037114971357984005	0.00036308941116960003	0.00036577617863968004	7.503511442367665e-05	662.2779197688632
7.502643997304305e-05	7.503587687242946e-05	0.00037113115674656	0.0003630683160376	0.0003657559296072	7.503273123930065e-05	662.2890321146795
7.502402546951175e-05	7.503353441794003e-05	0.00037111260115520005	0.00036304723435216004	0.00036573568995320005	7.503036476846393e-05	662.3001444604956
7.502156054297126e-05	7.503116329272463e-05	0.0003710940466072	0.00036302614359616	0.00036571544459984	7.502796237614018e-05	662.3112568063118
7.501914695538106e-05	7.50288218343988e-05	0.00037107548409624004	0.0003630050387776	0.00036569518721712004	7.502559687472622e-05	662.322369152128
7.501673279558937e-05	7.502650814909318e-05	0.00037105695959128	0.00036298396699176	0.00036567496452496003	7.502324969792525e-05	662.3334814979443
7.501426825247835e-05	7.502413738145633e-05	0.00037103842650080003	0.00036296290095376004	0.00036565474280280004	7.5020847671797e-05	662.3445938437604
7.5011854322343e-05	7.502179588668534e-05	0.00037101989429480004	0.00036294182066344	0.00036563451187384	7.501848203190458e-05	662.3557061895766
7.500939003534477e-05	7.501945410309182e-05	0.00037100136278936	0.00036292075872736005	0.00036561429341464	7.50160994138428e-05	662.3668185353928
7.500697704985651e-05	7.50170836939069e-05	0.00037098282302016	0.00036289968873264	0.00036559406682848004	7.501371481255677e-05	662.3779308812091
7.500456346343816e-05	7.501474254495091e-05	0.00037096432089656	0.00036287861055320003	0.00036557384733432	7.501134951778e-05	662.3890432270252
7.500209955974292e-05	7.501240151086878e-05	0.00037094580985544	0.00036285754561840003	0.00036555363369744	7.500896752716015e-05	662.4001555728414
7.499968620294965e-05	7.50100601746872e-05	0.00037092729933328	0.00036283649337896004	0.00036553342869704	7.500660218410805e-05	662.4112679186576
7.499722255532736e-05	7.500769024302967e-05	0.00037090878908432	0.00036281543180600003	0.00036551321756544004	7.500420101379558e-05	662.4223802644739
7.499481017173996e-05	7.500534955451476e-05	0.00037089027005416005	0.00036279436018424	0.00036549299680752	7.500183642692316e-05	662.43349261029
7.499239715845604e-05	7.500300939696503e-05	0.00037087178778112	0.00036277329422904005	0.00036547279207976	7.499947198412872e-05	662.4446049561062
7.498993389391642e-05	7.500069689547296e-05	0.00037085329461856	0.00036275225386824005	0.00036545260078504004	7.499710922828744e-05	662.4557173019224
7.498752187102496e-05	7.499832744022348e-05	0.00037083479121944	0.00036273121710416	0.00036543240847592003	7.499472558382397e-05	662.4668296477387
7.498510920122963e-05	7.499598721106125e-05	0.00037081632442984003	0.0003627101639244	0.00036541221742624006	7.499236120778408e-05	662.4779419935549
7.498264631983486e-05	7.499364709671201e-05	0.00037079784809344006	0.00036268912197792003	0.00036539203068312	7.498998017108627e-05	662.489054339371
